Timestamp,EMG_CH1,EMG_CH2
2024-12-19 09:37:00,24342,-201239
2024-12-19 09:37:00,24184,-201395
2024-12-19 09:37:00,24452,-201394
2024-12-19 09:37:00,24485,-201309
2024-12-19 09:37:00,23748,-201085
2024-12-19 09:37:00,23843,-201187
2024-12-19 09:37:00,24039,-201339
2024-12-19 09:37:00,24181,-201436
2024-12-19 09:37:00,23828,-201643
2024-12-19 09:37:00,23666,-201857
2024-12-19 09:37:00,23403,-201754
2024-12-19 09:37:00,23845,-201717
2024-12-19 09:37:00,23524,-201769
2024-12-19 09:37:00,23471,-201846
2024-12-19 09:37:00,23348,-201879
2024-12-19 09:37:00,23605,-201966
2024-12-19 09:37:00,23124,-202030
2024-12-19 09:37:00,22776,-202171
2024-12-19 09:37:00,22901,-202372
2024-12-19 09:37:00,23035,-202371
2024-12-19 09:37:00,22978,-202288
2024-12-19 09:37:00,22356,-202212
2024-12-19 09:37:00,22024,-202264
2024-12-19 09:37:00,22112,-202371
2024-12-19 09:37:00,21890,-202452
2024-12-19 09:37:00,21602,-202697
2024-12-19 09:37:00,21651,-202830
2024-12-19 09:37:00,21903,-202929
2024-12-19 09:37:00,21993,-202926
2024-12-19 09:37:00,21756,-202879
2024-12-19 09:37:00,21034,-202889
2024-12-19 09:37:00,21261,-202914
2024-12-19 09:37:00,21501,-203064
2024-12-19 09:37:00,21220,-203272
2024-12-19 09:37:00,20644,-203372
2024-12-19 09:37:00,20518,-203432
2024-12-19 09:37:00,20493,-203424
2024-12-19 09:37:00,20794,-203401
2024-12-19 09:37:00,20365,-203381
2024-12-19 09:37:00,19853,-203518
2024-12-19 09:37:00,19671,-203403
2024-12-19 09:37:00,19935,-203432
2024-12-19 09:37:00,19952,-203739
2024-12-19 09:37:00,19514,-203807
2024-12-19 09:37:00,19229,-203759
2024-12-19 09:37:00,19414,-203804
2024-12-19 09:37:00,19064,-203596
2024-12-19 09:37:00,18609,-203697
2024-12-19 09:37:00,18553,-203905
2024-12-19 09:37:00,18864,-203757
2024-12-19 09:37:00,19005,-203984
2024-12-19 09:37:00,18388,-204024
2024-12-19 09:37:00,18365,-204183
2024-12-19 09:37:00,18347,-204150
2024-12-19 09:37:00,18463,-204083
2024-12-19 09:37:00,17882,-204116
2024-12-19 09:37:00,17634,-204166
2024-12-19 09:37:00,17760,-204194
2024-12-19 09:37:00,18163,-204206
2024-12-19 09:37:00,17805,-204415
2024-12-19 09:37:00,17846,-204587
2024-12-19 09:37:00,17951,-204639
2024-12-19 09:37:00,17892,-204420
2024-12-19 09:37:00,17661,-204279
2024-12-19 09:37:00,17194,-204384
2024-12-19 09:37:00,16793,-204211
2024-12-19 09:37:00,17787,-204538
2024-12-19 09:37:00,17871,-204703
2024-12-19 09:37:00,17607,-204871
2024-12-19 09:37:00,17488,-204897
2024-12-19 09:37:00,17753,-204832
2024-12-19 09:37:00,17649,-204634
2024-12-19 09:37:00,17221,-204546
2024-12-19 09:37:00,17224,-204610
2024-12-19 09:37:00,17786,-204764
2024-12-19 09:37:00,17611,-204708
2024-12-19 09:37:00,17538,-204816
2024-12-19 09:37:00,17533,-204877
2024-12-19 09:37:00,17678,-204944
2024-12-19 09:37:00,17626,-204928
2024-12-19 09:37:00,18487,-204929
2024-12-19 09:37:00,18093,-204810
2024-12-19 09:37:00,17853,-204799
2024-12-19 09:37:00,18590,-204904
2024-12-19 09:37:00,18731,-204973
2024-12-19 09:37:00,18431,-205090
2024-12-19 09:37:00,18439,-205087
2024-12-19 09:37:00,18627,-205121
2024-12-19 09:37:00,18598,-204951
2024-12-19 09:37:00,18469,-204900
2024-12-19 09:37:00,18536,-204945
2024-12-19 09:37:00,18919,-205114
2024-12-19 09:37:00,18995,-205121
2024-12-19 09:37:00,19356,-205419
2024-12-19 09:37:00,18954,-205416
2024-12-19 09:37:00,19266,-205310
2024-12-19 09:37:00,19541,-205241
2024-12-19 09:37:00,19931,-205304
2024-12-19 09:37:00,19825,-205285
2024-12-19 09:37:00,19730,-205377
2024-12-19 09:37:00,20424,-205528
2024-12-19 09:37:00,20288,-205532
2024-12-19 09:37:00,20099,-205663
2024-12-19 09:37:00,20061,-205664
2024-12-19 09:37:00,20416,-205746
2024-12-19 09:37:00,20864,-205622
2024-12-19 09:37:00,20915,-205554
2024-12-19 09:37:00,20664,-205536
2024-12-19 09:37:00,20705,-205561
2024-12-19 09:37:00,21099,-205710
2024-12-19 09:37:00,20871,-205921
2024-12-19 09:37:00,20668,-205971
2024-12-19 09:37:00,20724,-206064
2024-12-19 09:37:00,21161,-205952
2024-12-19 09:37:00,20957,-205792
2024-12-19 09:37:00,20136,-205684
2024-12-19 09:37:00,20245,-205961
2024-12-19 09:37:00,20659,-205999
2024-12-19 09:37:00,20321,-206030
2024-12-19 09:37:00,20409,-206291
2024-12-19 09:37:00,20359,-206439
2024-12-19 09:37:00,20072,-206376
2024-12-19 09:37:00,20371,-206446
2024-12-19 09:37:00,19794,-206256
2024-12-19 09:37:00,19324,-206324
2024-12-19 09:37:00,19251,-206183
2024-12-19 09:37:00,19937,-206262
2024-12-19 09:37:00,19749,-206552
2024-12-19 09:37:00,19355,-206666
2024-12-19 09:37:00,19154,-206691
2024-12-19 09:37:00,19035,-206754
2024-12-19 09:37:00,19397,-206672
2024-12-19 09:37:00,18813,-206699
2024-12-19 09:37:00,18533,-206640
2024-12-19 09:37:00,19323,-206774
2024-12-19 09:37:00,19143,-206895
2024-12-19 09:37:00,18166,-206879
2024-12-19 09:37:00,18188,-207119
2024-12-19 09:37:00,18552,-207172
2024-12-19 09:37:00,18580,-207077
2024-12-19 09:37:00,18264,-206792
2024-12-19 09:37:00,17709,-206771
2024-12-19 09:37:00,17866,-206994
2024-12-19 09:37:00,18524,-207057
2024-12-19 09:37:00,17809,-207071
2024-12-19 09:37:00,17649,-207429
2024-12-19 09:37:00,17758,-207563
2024-12-19 09:37:00,17630,-207507
2024-12-19 09:37:00,17437,-207246
2024-12-19 09:37:00,17028,-207230
2024-12-19 09:37:00,16996,-207229
2024-12-19 09:37:00,17871,-207324
2024-12-19 09:37:00,17351,-207362
2024-12-19 09:37:00,16912,-207534
2024-12-19 09:37:00,16736,-207659
2024-12-19 09:37:00,16732,-207627
2024-12-19 09:37:00,17041,-207422
2024-12-19 09:37:00,16674,-207374
2024-12-19 09:37:00,16627,-207416
2024-12-19 09:37:00,16976,-207498
2024-12-19 09:37:00,17226,-207515
2024-12-19 09:37:00,16542,-207569
2024-12-19 09:37:00,16209,-207757
2024-12-19 09:37:00,16169,-207799
2024-12-19 09:37:00,16534,-207854
2024-12-19 09:37:00,17075,-207899
2024-12-19 09:37:00,16465,-207811
2024-12-19 09:37:00,15997,-207768
2024-12-19 09:37:00,16558,-207954
2024-12-19 09:37:00,16490,-207914
2024-12-19 09:37:00,16148,-208144
2024-12-19 09:37:00,15862,-208314
2024-12-19 09:37:00,15724,-208281
2024-12-19 09:37:00,15637,-208222
2024-12-19 09:37:00,15441,-208154
2024-12-19 09:37:00,14871,-208019
2024-12-19 09:37:00,15428,-208249
2024-12-19 09:37:00,16139,-208465
2024-12-19 09:37:00,15609,-208622
2024-12-19 09:37:00,15421,-208701
2024-12-19 09:37:00,15253,-208830
2024-12-19 09:37:00,15394,-208808
2024-12-19 09:37:00,15837,-208714
2024-12-19 09:37:00,14908,-208589
2024-12-19 09:37:00,14584,-208700
2024-12-19 09:37:00,14694,-208805
2024-12-19 09:37:00,14499,-208810
2024-12-19 09:37:00,14256,-209004
2024-12-19 09:37:00,14902,-209297
2024-12-19 09:37:00,14846,-209372
2024-12-19 09:37:00,14618,-209110
2024-12-19 09:37:00,14605,-209173
2024-12-19 09:37:00,14066,-209196
2024-12-19 09:37:00,14198,-209255
2024-12-19 09:37:00,14918,-209354
2024-12-19 09:37:00,14364,-209382
2024-12-19 09:37:00,13859,-209404
2024-12-19 09:37:00,13881,-209663
2024-12-19 09:37:00,14033,-209687
2024-12-19 09:37:00,14091,-209635
2024-12-19 09:37:00,13600,-209590
2024-12-19 09:37:00,13057,-209469
2024-12-19 09:37:00,12958,-209532
2024-12-19 09:37:00,13580,-209752
2024-12-19 09:37:00,13264,-209851
2024-12-19 09:37:00,13006,-209951
2024-12-19 09:37:00,12878,-210065
2024-12-19 09:37:00,12782,-209843
2024-12-19 09:37:00,12636,-209754
2024-12-19 09:37:00,12082,-209759
2024-12-19 09:37:00,11903,-209796
2024-12-19 09:37:00,12536,-209860
2024-12-19 09:37:00,12336,-210061
2024-12-19 09:37:00,12437,-210284
2024-12-19 09:37:00,12079,-210241
2024-12-19 09:37:00,12340,-210325
2024-12-19 09:37:00,12428,-210201
2024-12-19 09:37:00,11956,-210091
2024-12-19 09:37:00,11521,-210242
2024-12-19 09:37:00,11429,-210078
2024-12-19 09:37:00,11525,-210066
2024-12-19 09:37:00,11576,-210177
2024-12-19 09:37:00,12038,-210579
2024-12-19 09:37:00,11738,-210536
2024-12-19 09:37:00,12543,-210451
2024-12-19 09:37:01,12104,-210299
2024-12-19 09:37:01,11549,-210366
2024-12-19 09:37:01,11415,-210410
2024-12-19 09:37:01,12220,-210377
2024-12-19 09:37:01,12043,-210404
2024-12-19 09:37:01,11955,-210607
2024-12-19 09:37:01,11768,-210708
2024-12-19 09:37:01,11885,-210605
2024-12-19 09:37:01,12318,-210516
2024-12-19 09:37:01,11596,-210299
2024-12-19 09:37:01,11707,-210373
2024-12-19 09:37:01,12069,-210430
2024-12-19 09:37:01,12539,-210612
2024-12-19 09:37:01,12364,-210662
2024-12-19 09:37:01,12090,-210726
2024-12-19 09:37:01,12185,-210816
2024-12-19 09:37:01,12366,-210671
2024-12-19 09:37:01,13076,-210599
2024-12-19 09:37:01,12753,-210577
2024-12-19 09:37:01,12476,-210437
2024-12-19 09:37:01,12936,-210556
2024-12-19 09:37:01,13214,-210672
2024-12-19 09:37:01,13206,-210816
2024-12-19 09:37:01,13009,-210759
2024-12-19 09:37:01,13370,-210782
2024-12-19 09:37:01,13844,-210736
2024-12-19 09:37:01,13667,-210678
2024-12-19 09:37:01,13331,-210692
2024-12-19 09:37:01,13615,-210826
2024-12-19 09:37:01,14279,-210822
2024-12-19 09:37:01,14239,-210805
2024-12-19 09:37:01,14378,-211014
2024-12-19 09:37:01,14662,-211026
2024-12-19 09:37:01,14969,-210882
2024-12-19 09:37:01,14866,-210848
2024-12-19 09:37:01,14599,-210835
2024-12-19 09:37:01,14482,-210754
2024-12-19 09:37:01,15448,-210870
2024-12-19 09:37:01,15676,-210942
2024-12-19 09:37:01,15828,-211167
2024-12-19 09:37:01,16014,-211278
2024-12-19 09:37:01,16224,-211281
2024-12-19 09:37:01,16252,-211184
2024-12-19 09:37:01,16066,-210995
2024-12-19 09:37:01,15816,-211122
2024-12-19 09:37:01,15861,-211287
2024-12-19 09:37:01,16165,-211258
2024-12-19 09:37:01,15901,-211234
2024-12-19 09:37:01,15526,-211406
2024-12-19 09:37:01,15504,-211472
2024-12-19 09:37:01,15861,-211446
2024-12-19 09:37:01,16104,-211321
2024-12-19 09:37:01,15479,-211349
2024-12-19 09:37:01,15538,-211399
2024-12-19 09:37:01,16346,-211447
2024-12-19 09:37:01,15879,-211532
2024-12-19 09:37:01,15591,-211647
2024-12-19 09:37:01,15140,-211687
2024-12-19 09:37:01,15552,-211836
2024-12-19 09:37:01,15346,-211729
2024-12-19 09:37:01,15279,-211667
2024-12-19 09:37:01,14773,-211601
2024-12-19 09:37:01,14743,-211714
2024-12-19 09:37:01,15454,-211679
2024-12-19 09:37:01,15086,-211711
2024-12-19 09:37:01,14355,-211941
2024-12-19 09:37:01,14441,-212045
2024-12-19 09:37:01,14421,-211976
2024-12-19 09:37:01,14572,-211829
2024-12-19 09:37:01,14044,-211889
2024-12-19 09:37:01,13894,-211947
2024-12-19 09:37:01,14438,-212081
2024-12-19 09:37:01,14493,-212210
2024-12-19 09:37:01,13588,-212019
2024-12-19 09:37:01,13322,-212126
2024-12-19 09:37:01,13474,-212283
2024-12-19 09:37:01,13612,-212271
2024-12-19 09:37:01,13768,-212136
2024-12-19 09:37:01,13168,-212019
2024-12-19 09:37:01,12987,-212093
2024-12-19 09:37:01,13911,-212255
2024-12-19 09:37:01,13644,-212481
2024-12-19 09:37:01,12931,-212529
2024-12-19 09:37:01,13118,-212531
2024-12-19 09:37:01,13214,-212568
2024-12-19 09:37:01,13250,-212344
2024-12-19 09:37:01,13197,-212226
2024-12-19 09:37:01,12893,-212341
2024-12-19 09:37:01,12875,-212434
2024-12-19 09:37:01,13007,-212463
2024-12-19 09:37:01,12826,-212615
2024-12-19 09:37:01,12781,-212718
2024-12-19 09:37:01,12864,-212762
2024-12-19 09:37:01,12841,-212632
2024-12-19 09:37:01,13134,-212525
2024-12-19 09:37:01,12804,-212651
2024-12-19 09:37:01,12714,-212581
2024-12-19 09:37:01,12908,-212508
2024-12-19 09:37:01,12469,-212664
2024-12-19 09:37:01,11778,-212758
2024-12-19 09:37:01,11968,-212869
2024-12-19 09:37:01,12679,-213051
2024-12-19 09:37:01,12839,-212764
2024-12-19 09:37:01,12488,-212627
2024-12-19 09:37:01,12582,-212842
2024-12-19 09:37:01,12538,-212853
2024-12-19 09:37:01,12740,-212891
2024-12-19 09:37:01,12439,-213201
2024-12-19 09:37:01,12372,-213351
2024-12-19 09:37:01,12136,-213371
2024-12-19 09:37:01,12134,-213201
2024-12-19 09:37:01,11985,-213184
2024-12-19 09:37:01,12017,-213313
2024-12-19 09:37:01,11738,-213359
2024-12-19 09:37:01,11884,-213331
2024-12-19 09:37:01,11606,-213414
2024-12-19 09:37:01,11636,-213652
2024-12-19 09:37:01,11832,-213693
2024-12-19 09:37:01,11799,-213757
2024-12-19 09:37:01,11741,-213618
2024-12-19 09:37:01,11443,-213647
2024-12-19 09:37:01,11369,-213640
2024-12-19 09:37:01,11228,-213729
2024-12-19 09:37:01,11170,-213762
2024-12-19 09:37:01,10849,-213973
2024-12-19 09:37:01,11159,-214164
2024-12-19 09:37:01,11584,-214394
2024-12-19 09:37:01,11279,-214114
2024-12-19 09:37:01,10870,-213937
2024-12-19 09:37:01,10319,-214040
2024-12-19 09:37:01,10236,-213982
2024-12-19 09:37:01,11025,-214152
2024-12-19 09:37:01,11123,-214344
2024-12-19 09:37:01,10379,-214516
2024-12-19 09:37:01,10673,-214632
2024-12-19 09:37:01,10583,-214498
2024-12-19 09:37:01,10388,-214216
2024-12-19 09:37:01,9974,-214340
2024-12-19 09:37:01,9638,-214355
2024-12-19 09:37:01,9553,-214496
2024-12-19 09:37:01,10159,-214469
2024-12-19 09:37:01,9875,-214527
2024-12-19 09:37:01,9429,-214642
2024-12-19 09:37:01,9138,-214588
2024-12-19 09:37:01,9125,-214590
2024-12-19 09:37:01,9512,-214499
2024-12-19 09:37:01,9456,-214582
2024-12-19 09:37:01,9181,-214716
2024-12-19 09:37:01,9394,-214737
2024-12-19 09:37:01,9354,-214799
2024-12-19 09:37:01,9204,-214934
2024-12-19 09:37:01,9222,-215058
2024-12-19 09:37:01,9088,-214985
2024-12-19 09:37:01,9038,-214795
2024-12-19 09:37:01,8489,-214606
2024-12-19 09:37:01,8435,-214723
2024-12-19 09:37:01,8911,-214798
2024-12-19 09:37:01,8795,-214839
2024-12-19 09:37:01,8868,-214817
2024-12-19 09:37:01,8693,-215064
2024-12-19 09:37:01,8949,-215131
2024-12-19 09:37:01,8919,-215109
2024-12-19 09:37:01,9316,-214922
2024-12-19 09:37:01,8756,-214822
2024-12-19 09:37:01,8669,-214907
2024-12-19 09:37:01,8968,-215024
2024-12-19 09:37:01,9037,-215017
2024-12-19 09:37:01,9059,-215080
2024-12-19 09:37:01,8818,-215176
2024-12-19 09:37:01,9211,-215137
2024-12-19 09:37:01,9454,-215024
2024-12-19 09:37:01,9099,-214851
2024-12-19 09:37:01,9083,-214919
2024-12-19 09:37:01,9195,-214895
2024-12-19 09:37:01,9626,-214946
2024-12-19 09:37:01,9746,-215147
2024-12-19 09:37:01,9371,-215116
2024-12-19 09:37:01,9686,-215136
2024-12-19 09:37:01,9983,-215162
2024-12-19 09:37:01,10423,-215081
2024-12-19 09:37:01,9809,-215014
2024-12-19 09:37:01,9957,-215069
2024-12-19 09:37:01,10311,-215018
2024-12-19 09:37:01,10606,-215072
2024-12-19 09:37:01,10830,-215259
2024-12-19 09:37:01,10891,-215340
2024-12-19 09:37:01,11232,-215313
2024-12-19 09:37:01,11291,-215159
2024-12-19 09:37:01,11178,-215077
2024-12-19 09:37:01,10937,-215096
2024-12-19 09:37:01,11122,-215097
2024-12-19 09:37:01,12266,-215314
2024-12-19 09:37:01,12063,-215320
2024-12-19 09:37:01,12164,-215417
2024-12-19 09:37:01,12409,-215374
2024-12-19 09:37:01,12583,-215241
2024-12-19 09:37:01,12391,-215081
2024-12-19 09:37:01,11476,-215028
2024-12-19 09:37:01,11969,-215169
2024-12-19 09:37:01,12620,-215257
2024-12-19 09:37:01,13861,-215344
2024-12-19 09:37:01,13429,-215272
2024-12-19 09:37:01,13148,-215388
2024-12-19 09:37:01,13027,-215429
2024-12-19 09:37:01,13313,-215260
2024-12-19 09:37:01,13594,-215222
2024-12-19 09:37:01,13216,-215256
2024-12-19 09:37:01,12903,-215251
2024-12-19 09:37:01,13238,-215324
2024-12-19 09:37:01,13214,-215497
2024-12-19 09:37:01,12139,-215483
2024-12-19 09:37:01,12463,-215526
2024-12-19 09:37:01,14008,-215604
2024-12-19 09:37:01,13997,-215327
2024-12-19 09:37:01,12974,-215341
2024-12-19 09:37:01,13132,-215513
2024-12-19 09:37:01,13253,-215516
2024-12-19 09:37:01,12884,-215504
2024-12-19 09:37:01,12217,-215622
2024-12-19 09:37:01,12276,-215699
2024-12-19 09:37:01,12328,-215737
2024-12-19 09:37:01,13113,-215797
2024-12-19 09:37:01,13259,-215734
2024-12-19 09:37:01,12707,-215705
2024-12-19 09:37:01,12527,-215751
2024-12-19 09:37:01,13098,-215781
2024-12-19 09:37:01,12389,-215734
2024-12-19 09:37:01,11829,-215816
2024-12-19 09:37:01,11847,-215864
2024-12-19 09:37:01,12121,-215886
2024-12-19 09:37:01,11794,-215707
2024-12-19 09:37:01,11571,-215748
2024-12-19 09:37:01,11300,-215762
2024-12-19 09:37:01,11777,-215843
2024-12-19 09:37:01,12111,-216041
2024-12-19 09:37:01,11123,-215986
2024-12-19 09:37:01,11300,-216187
2024-12-19 09:37:01,11594,-216139
2024-12-19 09:37:01,11596,-216003
2024-12-19 09:37:01,11051,-215969
2024-12-19 09:37:01,11017,-216004
2024-12-19 09:37:01,11404,-216054
2024-12-19 09:37:01,11638,-215974
2024-12-19 09:37:01,11763,-215957
2024-12-19 09:37:01,10536,-216198
2024-12-19 09:37:01,10173,-216299
2024-12-19 09:37:01,10518,-216207
2024-12-19 09:37:01,11422,-216120
2024-12-19 09:37:01,11204,-216077
2024-12-19 09:37:01,10646,-216075
2024-12-19 09:37:01,11208,-216182
2024-12-19 09:37:01,11484,-216174
2024-12-19 09:37:01,10422,-216206
2024-12-19 09:37:01,10601,-216614
2024-12-19 09:37:01,11266,-216689
2024-12-19 09:37:01,11336,-216494
2024-12-19 09:37:01,10731,-216206
2024-12-19 09:37:01,10514,-216116
2024-12-19 09:37:01,10785,-216191
2024-12-19 09:37:01,11043,-216497
2024-12-19 09:37:01,10549,-216589
2024-12-19 09:37:01,10203,-216707
2024-12-19 09:37:01,10107,-216623
2024-12-19 09:37:01,10351,-216676
2024-12-19 09:37:01,10099,-216520
2024-12-19 09:37:01,10230,-216494
2024-12-19 09:37:01,10388,-216584
2024-12-19 09:37:01,10445,-216729
2024-12-19 09:37:01,10377,-216670
2024-12-19 09:37:01,10012,-216805
2024-12-19 09:37:01,9463,-216869
2024-12-19 09:37:01,9981,-217005
2024-12-19 09:37:01,10107,-216895
2024-12-19 09:37:01,9906,-216747
2024-12-19 09:37:01,9566,-216826
2024-12-19 09:37:01,9664,-216999
2024-12-19 09:37:01,10088,-217081
2024-12-19 09:37:01,9469,-217009
2024-12-19 09:37:01,9272,-217175
2024-12-19 09:37:01,8999,-217223
2024-12-19 09:37:01,8811,-217213
2024-12-19 09:37:01,8920,-217166
2024-12-19 09:37:01,9499,-217380
2024-12-19 09:37:01,8804,-217378
2024-12-19 09:37:01,8788,-217352
2024-12-19 09:37:01,8629,-217196
2024-12-19 09:37:01,8383,-217174
2024-12-19 09:37:01,8383,-217504
2024-12-19 09:37:01,8619,-217635
2024-12-19 09:37:01,8353,-217464
2024-12-19 09:37:01,8391,-217127
2024-12-19 09:37:01,7971,-217116
2024-12-19 09:37:01,8100,-217064
2024-12-19 09:37:01,8758,-217299
2024-12-19 09:37:01,7796,-217209
2024-12-19 09:37:01,8613,-217463
2024-12-19 09:37:01,8393,-217439
2024-12-19 09:37:01,8478,-217391
2024-12-19 09:37:01,8126,-217534
2024-12-19 09:37:01,7784,-217222
2024-12-19 09:37:01,7525,-217107
2024-12-19 09:37:01,7471,-217114
2024-12-19 09:37:01,8086,-217172
2024-12-19 09:37:01,7259,-217001
2024-12-19 09:37:01,6922,-217054
2024-12-19 09:37:01,7153,-217399
2024-12-19 09:37:01,7613,-217220
2024-12-19 09:37:01,7871,-217052
2024-12-19 09:37:01,7296,-216954
2024-12-19 09:37:01,7028,-217056
2024-12-19 09:37:01,7437,-217138
2024-12-19 09:37:01,7222,-217252
2024-12-19 09:37:01,7142,-217332
2024-12-19 09:37:01,6579,-217293
2024-12-19 09:37:01,6841,-217347
2024-12-19 09:37:01,7344,-217041
2024-12-19 09:37:01,6650,-216975
2024-12-19 09:37:01,6271,-216954
2024-12-19 09:37:01,6833,-217015
2024-12-19 09:37:01,7151,-216994
2024-12-19 09:37:01,6246,-217022
2024-12-19 09:37:01,6478,-217172
2024-12-19 09:37:01,7614,-217378
2024-12-19 09:37:01,7567,-217193
2024-12-19 09:37:01,7656,-216893
2024-12-19 09:37:01,7370,-216876
2024-12-19 09:37:01,6996,-216802
2024-12-19 09:37:01,7461,-216809
2024-12-19 09:37:01,7481,-216989
2024-12-19 09:37:01,7446,-217082
2024-12-19 09:37:01,7336,-217141
2024-12-19 09:37:01,7129,-216927
2024-12-19 09:37:01,7889,-216801
2024-12-19 09:37:01,7310,-216785
2024-12-19 09:37:01,6808,-216698
2024-12-19 09:37:01,7401,-216797
2024-12-19 09:37:01,8233,-216929
2024-12-19 09:37:01,7935,-217149
2024-12-19 09:37:01,8039,-217250
2024-12-19 09:37:01,8044,-217159
2024-12-19 09:37:01,8004,-216936
2024-12-19 09:37:01,8309,-216742
2024-12-19 09:37:01,8497,-216691
2024-12-19 09:37:01,8563,-216876
2024-12-19 09:37:01,9148,-216581
2024-12-19 09:37:01,9356,-216457
2024-12-19 09:37:01,8938,-216696
2024-12-19 09:37:01,9668,-216956
2024-12-19 09:37:01,9976,-217122
2024-12-19 09:37:01,10348,-216975
2024-12-19 09:37:01,9887,-216819
2024-12-19 09:37:01,9776,-216675
2024-12-19 09:37:01,10100,-216765
2024-12-19 09:37:01,10113,-216553
2024-12-19 09:37:01,10473,-216753
2024-12-19 09:37:01,11146,-216932
2024-12-19 09:37:01,11326,-217079
2024-12-19 09:37:01,11581,-216849
2024-12-19 09:37:01,12143,-216637
2024-12-19 09:37:01,11793,-216658
2024-12-19 09:37:01,11353,-216511
2024-12-19 09:37:01,12354,-216606
2024-12-19 09:37:01,12636,-216797
2024-12-19 09:37:01,11896,-216704
2024-12-19 09:37:01,12106,-216710
2024-12-19 09:37:01,12789,-216853
2024-12-19 09:37:01,12627,-216754
2024-12-19 09:37:01,11853,-216474
2024-12-19 09:37:01,11670,-216635
2024-12-19 09:37:01,11686,-216614
2024-12-19 09:37:01,13066,-216542
2024-12-19 09:37:01,12451,-216137
2024-12-19 09:37:01,12115,-216263
2024-12-19 09:37:01,11561,-216039
2024-12-19 09:37:01,11536,-216031
2024-12-19 09:37:01,12064,-216630
2024-12-19 09:37:01,12062,-216928
2024-12-19 09:37:01,11323,-216807
2024-12-19 09:37:01,11989,-216921
2024-12-19 09:37:01,11551,-216847
2024-12-19 09:37:01,11083,-217022
2024-12-19 09:37:01,10926,-217034
2024-12-19 09:37:01,10579,-216951
2024-12-19 09:37:01,10538,-216833
2024-12-19 09:37:01,10593,-216744
2024-12-19 09:37:01,10171,-216831
2024-12-19 09:37:01,10193,-216892
2024-12-19 09:37:01,10949,-216777
2024-12-19 09:37:01,10341,-216682
2024-12-19 09:37:01,9710,-216916
2024-12-19 09:37:01,9183,-216976
2024-12-19 09:37:01,9423,-217006
2024-12-19 09:37:01,9753,-217019
2024-12-19 09:37:01,9653,-216799
2024-12-19 09:37:01,9207,-216843
2024-12-19 09:37:01,9554,-216904
2024-12-19 09:37:01,9664,-217076
2024-12-19 09:37:01,9273,-217149
2024-12-19 09:37:01,8793,-217186
2024-12-19 09:37:01,8714,-217077
2024-12-19 09:37:01,8869,-216872
2024-12-19 09:37:01,8403,-216889
2024-12-19 09:37:01,7598,-216673
2024-12-19 09:37:01,7603,-216894
2024-12-19 09:37:01,8367,-217249
2024-12-19 09:37:01,8004,-217174
2024-12-19 09:37:01,7176,-217271
2024-12-19 09:37:01,6760,-217375
2024-12-19 09:37:01,6641,-217242
2024-12-19 09:37:01,7299,-217027
2024-12-19 09:37:01,7760,-216942
2024-12-19 09:37:01,7673,-216722
2024-12-19 09:37:01,7711,-216609
2024-12-19 09:37:01,8079,-216594
2024-12-19 09:37:01,7465,-216760
2024-12-19 09:37:01,7374,-217148
2024-12-19 09:37:01,7301,-216976
2024-12-19 09:37:01,7710,-217112
2024-12-19 09:37:01,7466,-216848
2024-12-19 09:37:01,7203,-217042
2024-12-19 09:37:01,7108,-217009
2024-12-19 09:37:01,7429,-216732
2024-12-19 09:37:01,7242,-216925
2024-12-19 09:37:01,6918,-216963
2024-12-19 09:37:01,6783,-216888
2024-12-19 09:37:01,7288,-217181
2024-12-19 09:37:01,7923,-217024
2024-12-19 09:37:01,8349,-216843
2024-12-19 09:37:01,7723,-216876
2024-12-19 09:37:01,7547,-217192
2024-12-19 09:37:01,8195,-217616
2024-12-19 09:37:01,7728,-217298
2024-12-19 09:37:01,7758,-217699
2024-12-19 09:37:01,7807,-217765
2024-12-19 09:37:01,8135,-217713
2024-12-19 09:37:01,8441,-218089
2024-12-19 09:37:01,7533,-217688
2024-12-19 09:37:01,7422,-217694
2024-12-19 09:37:01,8101,-217914
2024-12-19 09:37:01,8014,-217869
2024-12-19 09:37:01,8040,-218195
2024-12-19 09:37:01,7802,-218322
2024-12-19 09:37:01,7945,-218227
2024-12-19 09:37:01,8256,-217975
2024-12-19 09:37:01,8378,-217942
2024-12-19 09:37:01,8215,-217910
2024-12-19 09:37:01,8453,-218126
2024-12-19 09:37:01,9334,-218317
2024-12-19 09:37:01,9173,-218389
2024-12-19 09:37:01,7819,-218192
2024-12-19 09:37:01,7514,-218026
2024-12-19 09:37:01,8343,-218023
2024-12-19 09:37:01,8821,-218033
2024-12-19 09:37:01,8437,-218104
2024-12-19 09:37:01,8481,-218115
2024-12-19 09:37:01,8571,-218035
2024-12-19 09:37:01,8053,-218141
2024-12-19 09:37:01,7591,-218427
2024-12-19 09:37:01,8274,-218847
2024-12-19 09:37:01,8858,-218639
2024-12-19 09:37:01,8657,-218065
2024-12-19 09:37:01,8059,-218194
2024-12-19 09:37:01,7664,-218431
2024-12-19 09:37:01,7839,-218446
2024-12-19 09:37:01,8169,-218418
2024-12-19 09:37:01,8618,-218499
2024-12-19 09:37:01,8706,-218679
2024-12-19 09:37:01,7986,-218679
2024-12-19 09:37:01,7920,-218809
2024-12-19 09:37:01,7693,-218446
2024-12-19 09:37:01,7553,-218539
2024-12-19 09:37:01,7059,-218692
2024-12-19 09:37:01,7344,-218994
2024-12-19 09:37:01,7425,-218822
2024-12-19 09:37:01,6859,-219104
2024-12-19 09:37:01,6576,-219083
2024-12-19 09:37:01,6651,-218998
2024-12-19 09:37:01,6901,-219034
2024-12-19 09:37:01,6878,-219015
2024-12-19 09:37:01,6404,-219180
2024-12-19 09:37:01,5840,-219026
2024-12-19 09:37:01,6196,-219020
2024-12-19 09:37:01,5271,-219057
2024-12-19 09:37:01,5044,-219196
2024-12-19 09:37:01,5136,-219644
2024-12-19 09:37:01,5239,-219789
2024-12-19 09:37:01,5017,-219544
2024-12-19 09:37:01,4469,-219089
2024-12-19 09:37:01,4134,-218991
2024-12-19 09:37:01,4199,-219357
2024-12-19 09:37:01,3948,-219260
2024-12-19 09:37:01,3932,-219491
2024-12-19 09:37:01,3273,-219392
2024-12-19 09:37:01,3378,-219512
2024-12-19 09:37:01,3214,-219275
2024-12-19 09:37:01,2969,-219451
2024-12-19 09:37:01,1933,-219309
2024-12-19 09:37:01,1732,-219687
2024-12-19 09:37:01,2296,-220158
2024-12-19 09:37:01,1782,-220219
2024-12-19 09:37:01,1481,-220691
2024-12-19 09:37:01,1491,-220988
2024-12-19 09:37:01,1463,-220594
2024-12-19 09:37:01,1593,-220204
2024-12-19 09:37:01,1740,-219931
2024-12-19 09:37:01,1602,-220002
2024-12-19 09:37:01,2180,-219899
2024-12-19 09:37:01,2393,-220024
2024-12-19 09:37:01,1953,-220038
2024-12-19 09:37:01,891,-219960
2024-12-19 09:37:01,-87,-219595
2024-12-19 09:37:01,-62,-219201
2024-12-19 09:37:02,614,-219096
2024-12-19 09:37:02,2083,-219982
2024-12-19 09:37:02,2016,-220454
2024-12-19 09:37:02,1929,-220516
2024-12-19 09:37:02,446,-220550
2024-12-19 09:37:02,-319,-220421
2024-12-19 09:37:02,-457,-219756
2024-12-19 09:37:02,-663,-219651
2024-12-19 09:37:02,-484,-219351
2024-12-19 09:37:02,-1861,-219559
2024-12-19 09:37:02,-2187,-220031
2024-12-19 09:37:02,-1492,-220207
2024-12-19 09:37:02,-2127,-219831
2024-12-19 09:37:02,-2584,-219826
2024-12-19 09:37:02,-2687,-219774
2024-12-19 09:37:02,-3334,-219941
2024-12-19 09:37:02,-3292,-219438
2024-12-19 09:37:02,-3496,-219077
2024-12-19 09:37:02,-4561,-218871
2024-12-19 09:37:02,-5518,-218439
2024-12-19 09:37:02,-4561,-218214
2024-12-19 09:37:02,-4619,-218094
2024-12-19 09:37:02,-3996,-218437
2024-12-19 09:37:02,-4029,-218174
2024-12-19 09:37:02,-3780,-217914
2024-12-19 09:37:02,-3998,-217491
2024-12-19 09:37:02,-5242,-217375
2024-12-19 09:37:02,-6469,-217862
2024-12-19 09:37:02,-6091,-217704
2024-12-19 09:37:02,-5841,-216993
2024-12-19 09:37:02,-6410,-216835
2024-12-19 09:37:02,-6889,-216325
2024-12-19 09:37:02,-7380,-216288
2024-12-19 09:37:02,-7671,-216259
2024-12-19 09:37:02,-7945,-216630
2024-12-19 09:37:02,-7846,-216699
2024-12-19 09:37:02,-7387,-216237
2024-12-19 09:37:02,-7297,-216892
2024-12-19 09:37:02,-6627,-217661
2024-12-19 09:37:02,-6198,-219074
2024-12-19 09:37:02,-5849,-219631
2024-12-19 09:37:02,-7079,-219807
2024-12-19 09:37:02,-7536,-220942
2024-12-19 09:37:02,-8077,-221167
2024-12-19 09:37:02,-8398,-221242
2024-12-19 09:37:02,-8264,-221409
2024-12-19 09:37:02,-8399,-221005
2024-12-19 09:37:02,-9157,-220584
2024-12-19 09:37:02,-9779,-220258
2024-12-19 09:37:02,-10181,-219942
2024-12-19 09:37:02,-10085,-218996
2024-12-19 09:37:02,-10122,-218711
2024-12-19 09:37:02,-10696,-218949
2024-12-19 09:37:02,-11486,-219596
2024-12-19 09:37:02,-11659,-220051
2024-12-19 09:37:02,-12851,-220389
2024-12-19 09:37:02,-13685,-220583
2024-12-19 09:37:02,-13289,-220473
2024-12-19 09:37:02,-13579,-220202
2024-12-19 09:37:02,-13560,-219852
2024-12-19 09:37:02,-13707,-219893
2024-12-19 09:37:02,-14404,-219894
2024-12-19 09:37:02,-14041,-220268
2024-12-19 09:37:02,-13311,-220254
2024-12-19 09:37:02,-13314,-219860
2024-12-19 09:37:02,-13800,-219864
2024-12-19 09:37:02,-13244,-219754
2024-12-19 09:37:02,-12974,-219729
2024-12-19 09:37:02,-12786,-219797
2024-12-19 09:37:02,-12974,-219568
2024-12-19 09:37:02,-13421,-219464
2024-12-19 09:37:02,-12922,-219504
2024-12-19 09:37:02,-12863,-219785
2024-12-19 09:37:02,-13384,-219811
2024-12-19 09:37:02,-13660,-219690
2024-12-19 09:37:02,-13775,-219572
2024-12-19 09:37:02,-13742,-219417
2024-12-19 09:37:02,-13759,-219920
2024-12-19 09:37:02,-13797,-219867
2024-12-19 09:37:02,-13560,-219581
2024-12-19 09:37:02,-13224,-219307
2024-12-19 09:37:02,-13354,-219547
2024-12-19 09:37:02,-13893,-219629
2024-12-19 09:37:02,-13606,-219357
2024-12-19 09:37:02,-13336,-219349
2024-12-19 09:37:02,-13487,-219812
2024-12-19 09:37:02,-14298,-220041
2024-12-19 09:37:02,-14262,-219897
2024-12-19 09:37:02,-13742,-219541
2024-12-19 09:37:02,-13791,-219571
2024-12-19 09:37:02,-14187,-219401
2024-12-19 09:37:02,-14897,-219414
2024-12-19 09:37:02,-15285,-219315
2024-12-19 09:37:02,-14418,-219831
2024-12-19 09:37:02,-13971,-220380
2024-12-19 09:37:02,-14165,-219921
2024-12-19 09:37:02,-14375,-219452
2024-12-19 09:37:02,-12958,-219725
2024-12-19 09:37:02,-12811,-220206
2024-12-19 09:37:02,-13136,-220015
2024-12-19 09:37:02,-13914,-219880
2024-12-19 09:37:02,-14029,-220659
2024-12-19 09:37:02,-14374,-219901
2024-12-19 09:37:02,-15149,-219729
2024-12-19 09:37:02,-14704,-220109
2024-12-19 09:37:02,-14364,-220401
2024-12-19 09:37:02,-14444,-220542
2024-12-19 09:37:02,-14322,-220552
2024-12-19 09:37:02,-13635,-220640
2024-12-19 09:37:02,-13916,-220687
2024-12-19 09:37:02,-13390,-220639
2024-12-19 09:37:02,-13101,-220704
2024-12-19 09:37:02,-13198,-220715
2024-12-19 09:37:02,-12584,-220866
2024-12-19 09:37:02,-12141,-220816
2024-12-19 09:37:02,-12631,-220997
2024-12-19 09:37:02,-13616,-221032
2024-12-19 09:37:02,-13921,-220874
2024-12-19 09:37:02,-14207,-220739
2024-12-19 09:37:02,-13609,-220511
2024-12-19 09:37:02,-12639,-220587
2024-12-19 09:37:02,-12850,-220573
2024-12-19 09:37:02,-13118,-220531
2024-12-19 09:37:02,-13386,-220614
2024-12-19 09:37:02,-13797,-220956
2024-12-19 09:37:02,-12998,-221643
2024-12-19 09:37:02,-11733,-221396
2024-12-19 09:37:02,-10697,-221381
2024-12-19 09:37:02,-11083,-221134
2024-12-19 09:37:02,-11424,-221066
2024-12-19 09:37:02,-10696,-221552
2024-12-19 09:37:02,-9927,-221402
2024-12-19 09:37:02,-10822,-221395
2024-12-19 09:37:02,-11243,-221346
2024-12-19 09:37:02,-11397,-221306
2024-12-19 09:37:02,-11811,-221822
2024-12-19 09:37:02,-11341,-221747
2024-12-19 09:37:02,-10796,-221334
2024-12-19 09:37:02,-11324,-221254
2024-12-19 09:37:02,-12031,-221112
2024-12-19 09:37:02,-11261,-221064
2024-12-19 09:37:02,-11490,-221119
2024-12-19 09:37:02,-11101,-221648
2024-12-19 09:37:02,-10814,-221971
2024-12-19 09:37:02,-10260,-221526
2024-12-19 09:37:02,-9379,-221624
2024-12-19 09:37:02,-9382,-221725
2024-12-19 09:37:02,-9047,-221356
2024-12-19 09:37:02,-8160,-220789
2024-12-19 09:37:02,-9437,-221272
2024-12-19 09:37:02,-9986,-221750
2024-12-19 09:37:02,-10589,-222133
2024-12-19 09:37:02,-10934,-221929
2024-12-19 09:37:02,-11105,-221521
2024-12-19 09:37:02,-11125,-221599
2024-12-19 09:37:02,-10652,-221976
2024-12-19 09:37:02,-10592,-221792
2024-12-19 09:37:02,-9619,-222219
2024-12-19 09:37:02,-10199,-222024
2024-12-19 09:37:02,-10120,-222058
2024-12-19 09:37:02,-10616,-222148
2024-12-19 09:37:02,-10284,-222219
2024-12-19 09:37:02,-9337,-222238
2024-12-19 09:37:02,-8699,-222124
2024-12-19 09:37:02,-7249,-222231
2024-12-19 09:37:02,-6177,-222210
2024-12-19 09:37:02,-7051,-222258
2024-12-19 09:37:02,-7661,-222106
2024-12-19 09:37:02,-7919,-222012
2024-12-19 09:37:02,-7437,-222025
2024-12-19 09:37:02,-6865,-222257
2024-12-19 09:37:02,-7252,-222646
2024-12-19 09:37:02,-6847,-222512
2024-12-19 09:37:02,-5928,-223001
2024-12-19 09:37:02,-5520,-223027
2024-12-19 09:37:02,-5038,-222712
2024-12-19 09:37:02,-5963,-222587
2024-12-19 09:37:02,-6059,-223066
2024-12-19 09:37:02,-5329,-223106
2024-12-19 09:37:02,-4634,-223210
2024-12-19 09:37:02,-5214,-222982
2024-12-19 09:37:02,-4488,-222864
2024-12-19 09:37:02,-3280,-222887
2024-12-19 09:37:02,-3950,-222814
2024-12-19 09:37:02,-4228,-222662
2024-12-19 09:37:02,-4531,-222770
2024-12-19 09:37:02,-4386,-223242
2024-12-19 09:37:02,-3623,-223415
2024-12-19 09:37:02,-3416,-223556
2024-12-19 09:37:02,-3305,-223563
2024-12-19 09:37:02,-3234,-223193
2024-12-19 09:37:02,-2529,-222747
2024-12-19 09:37:02,-4029,-222739
2024-12-19 09:37:02,-4142,-223975
2024-12-19 09:37:02,-4334,-224284
2024-12-19 09:37:02,-2649,-224062
2024-12-19 09:37:02,-1263,-223812
2024-12-19 09:37:02,-686,-223816
2024-12-19 09:37:02,-80,-223734
2024-12-19 09:37:02,328,-223742
2024-12-19 09:37:02,-202,-223731
2024-12-19 09:37:02,-924,-223770
2024-12-19 09:37:02,-1132,-223819
2024-12-19 09:37:02,-765,-223644
2024-12-19 09:37:02,629,-223557
2024-12-19 09:37:02,1301,-224147
2024-12-19 09:37:02,211,-223799
2024-12-19 09:37:02,-82,-223509
2024-12-19 09:37:02,531,-222984
2024-12-19 09:37:02,-267,-224034
2024-12-19 09:37:02,-1166,-225383
2024-12-19 09:37:02,-1418,-224856
2024-12-19 09:37:02,-567,-224729
2024-12-19 09:37:02,956,-224732
2024-12-19 09:37:02,1207,-224734
2024-12-19 09:37:02,919,-224801
2024-12-19 09:37:02,2131,-224681
2024-12-19 09:37:02,1699,-224907
2024-12-19 09:37:02,854,-225864
2024-12-19 09:37:02,305,-225618
2024-12-19 09:37:02,156,-225207
2024-12-19 09:37:02,1381,-225315
2024-12-19 09:37:02,2177,-225252
2024-12-19 09:37:02,1903,-226635
2024-12-19 09:37:02,1896,-226666
2024-12-19 09:37:02,3323,-226157
2024-12-19 09:37:02,2135,-226139
2024-12-19 09:37:02,631,-226407
2024-12-19 09:37:02,-168,-226641
2024-12-19 09:37:02,13,-226506
2024-12-19 09:37:02,341,-226381
2024-12-19 09:37:02,434,-226474
2024-12-19 09:37:02,1287,-226903
2024-12-19 09:37:02,3821,-226950
2024-12-19 09:37:02,2888,-227285
2024-12-19 09:37:02,1591,-227316
2024-12-19 09:37:02,677,-227402
2024-12-19 09:37:02,380,-227211
2024-12-19 09:37:02,568,-227249
2024-12-19 09:37:02,1509,-227094
2024-12-19 09:37:02,1439,-227335
2024-12-19 09:37:02,1186,-228054
2024-12-19 09:37:02,2728,-227909
2024-12-19 09:37:02,1012,-228394
2024-12-19 09:37:02,-940,-228548
2024-12-19 09:37:02,-2207,-228727
2024-12-19 09:37:02,-707,-228833
2024-12-19 09:37:02,1127,-228507
2024-12-19 09:37:02,-671,-228956
2024-12-19 09:37:02,126,-229231
2024-12-19 09:37:02,2153,-229302
2024-12-19 09:37:02,1088,-229935
2024-12-19 09:37:02,-151,-230115
2024-12-19 09:37:02,-299,-230057
2024-12-19 09:37:02,-1291,-230450
2024-12-19 09:37:02,-916,-230523
2024-12-19 09:37:02,-1215,-230984
2024-12-19 09:37:02,-1936,-231578
2024-12-19 09:37:02,-1833,-231791
2024-12-19 09:37:02,-569,-232032
2024-12-19 09:37:02,-1228,-232126
2024-12-19 09:37:02,-1007,-232537
2024-12-19 09:37:02,-2162,-233011
2024-12-19 09:37:02,-999,-233705
2024-12-19 09:37:02,500,-233399
2024-12-19 09:37:02,382,-233954
2024-12-19 09:37:02,-737,-234041
2024-12-19 09:37:02,-509,-234222
2024-12-19 09:37:02,113,-234842
2024-12-19 09:37:02,-990,-235778
2024-12-19 09:37:02,-2004,-236086
2024-12-19 09:37:02,-2217,-236259
2024-12-19 09:37:02,-1118,-236293
2024-12-19 09:37:02,808,-236219
2024-12-19 09:37:02,256,-236521
2024-12-19 09:37:02,451,-236841
2024-12-19 09:37:02,654,-236876
2024-12-19 09:37:02,-169,-237229
2024-12-19 09:37:02,-171,-237700
2024-12-19 09:37:02,90,-237856
2024-12-19 09:37:02,1663,-238092
2024-12-19 09:37:02,3270,-237854
2024-12-19 09:37:02,2922,-238180
2024-12-19 09:37:02,2638,-239057
2024-12-19 09:37:02,3352,-238872
2024-12-19 09:37:02,4897,-238956
2024-12-19 09:37:02,3830,-239234
2024-12-19 09:37:02,3699,-239874
2024-12-19 09:37:02,3864,-240044
2024-12-19 09:37:02,5257,-239802
2024-12-19 09:37:02,6297,-239807
2024-12-19 09:37:02,6159,-240226
2024-12-19 09:37:02,6933,-239917
2024-12-19 09:37:02,9233,-239605
2024-12-19 09:37:02,8363,-239796
2024-12-19 09:37:02,8355,-240256
2024-12-19 09:37:02,8234,-240214
2024-12-19 09:37:02,8633,-240169
2024-12-19 09:37:02,10165,-240095
2024-12-19 09:37:02,10448,-240027
2024-12-19 09:37:02,10138,-240036
2024-12-19 09:37:02,9865,-240067
2024-12-19 09:37:02,10651,-239811
2024-12-19 09:37:02,9565,-239765
2024-12-19 09:37:02,9599,-239798
2024-12-19 09:37:02,11108,-239706
2024-12-19 09:37:02,12478,-239473
2024-12-19 09:37:02,12693,-239316
2024-12-19 09:37:02,11416,-239299
2024-12-19 09:37:02,11736,-239137
2024-12-19 09:37:02,11838,-238854
2024-12-19 09:37:02,12650,-238993
2024-12-19 09:37:02,13169,-239286
2024-12-19 09:37:02,13162,-239423
2024-12-19 09:37:02,14026,-239359
2024-12-19 09:37:02,15333,-239329
2024-12-19 09:37:02,14826,-239348
2024-12-19 09:37:02,14848,-239136
2024-12-19 09:37:02,15784,-238782
2024-12-19 09:37:02,16796,-238707
2024-12-19 09:37:02,15951,-239140
2024-12-19 09:37:02,14888,-239494
2024-12-19 09:37:02,15346,-239917
2024-12-19 09:37:02,16278,-239524
2024-12-19 09:37:02,17699,-239059
2024-12-19 09:37:02,17956,-239187
2024-12-19 09:37:02,18383,-239464
2024-12-19 09:37:02,19184,-239142
2024-12-19 09:37:02,19320,-239454
2024-12-19 09:37:02,19508,-239510
2024-12-19 09:37:02,20336,-239441
2024-12-19 09:37:02,21106,-239266
2024-12-19 09:37:02,22601,-239000
2024-12-19 09:37:02,23299,-238801
2024-12-19 09:37:02,23527,-238767
2024-12-19 09:37:02,25101,-238979
2024-12-19 09:37:02,26203,-239088
2024-12-19 09:37:02,25611,-239289
2024-12-19 09:37:02,25587,-239476
2024-12-19 09:37:02,25964,-239181
2024-12-19 09:37:02,26708,-238860
2024-12-19 09:37:02,28211,-238067
2024-12-19 09:37:02,28353,-238000
2024-12-19 09:37:02,28356,-238117
2024-12-19 09:37:02,28154,-237702
2024-12-19 09:37:02,28092,-237659
2024-12-19 09:37:02,28343,-237752
2024-12-19 09:37:02,28838,-237269
2024-12-19 09:37:02,29468,-237369
2024-12-19 09:37:02,31008,-236931
2024-12-19 09:37:02,32030,-236797
2024-12-19 09:37:02,31912,-236169
2024-12-19 09:37:02,32448,-236056
2024-12-19 09:37:02,32666,-235794
2024-12-19 09:37:02,32251,-235568
2024-12-19 09:37:02,32907,-235261
2024-12-19 09:37:02,33480,-234694
2024-12-19 09:37:02,33475,-233827
2024-12-19 09:37:02,34590,-233218
2024-12-19 09:37:02,36009,-233216
2024-12-19 09:37:02,36345,-233301
2024-12-19 09:37:02,36320,-232839
2024-12-19 09:37:02,36328,-232562
2024-12-19 09:37:02,35448,-232494
2024-12-19 09:37:02,35656,-232298
2024-12-19 09:37:02,35811,-231726
2024-12-19 09:37:02,36685,-231011
2024-12-19 09:37:02,37402,-230692
2024-12-19 09:37:02,37322,-230478
2024-12-19 09:37:02,37771,-230115
2024-12-19 09:37:02,38209,-229685
2024-12-19 09:37:02,38005,-229639
2024-12-19 09:37:02,37931,-229584
2024-12-19 09:37:02,38164,-229354
2024-12-19 09:37:02,38953,-228824
2024-12-19 09:37:02,40048,-228396
2024-12-19 09:37:02,40238,-228134
2024-12-19 09:37:02,39643,-228018
2024-12-19 09:37:02,40022,-227592
2024-12-19 09:37:02,40973,-227904
2024-12-19 09:37:02,40701,-227967
2024-12-19 09:37:02,40820,-227857
2024-12-19 09:37:02,40489,-227437
2024-12-19 09:37:02,40346,-226877
2024-12-19 09:37:02,41761,-226729
2024-12-19 09:37:02,41317,-226642
2024-12-19 09:37:02,41393,-226646
2024-12-19 09:37:02,42720,-226502
2024-12-19 09:37:02,44145,-226732
2024-12-19 09:37:02,42786,-227138
2024-12-19 09:37:02,42525,-226533
2024-12-19 09:37:02,42404,-226229
2024-12-19 09:37:02,42637,-225617
2024-12-19 09:37:02,42659,-225671
2024-12-19 09:37:02,42420,-225678
2024-12-19 09:37:02,43066,-225357
2024-12-19 09:37:02,43578,-226153
2024-12-19 09:37:02,43213,-225994
2024-12-19 09:37:02,42775,-225619
2024-12-19 09:37:02,43489,-225529
2024-12-19 09:37:02,44173,-225037
2024-12-19 09:37:02,44498,-224894
2024-12-19 09:37:02,44504,-224784
2024-12-19 09:37:02,44350,-224630
2024-12-19 09:37:02,43890,-224137
2024-12-19 09:37:02,43874,-224071
2024-12-19 09:37:02,42818,-224131
2024-12-19 09:37:02,42605,-223765
2024-12-19 09:37:02,43594,-223281
2024-12-19 09:37:02,44374,-222751
2024-12-19 09:37:02,45741,-222777
2024-12-19 09:37:02,45512,-222713
2024-12-19 09:37:02,44786,-222464
2024-12-19 09:37:02,45631,-222534
2024-12-19 09:37:02,45120,-222470
2024-12-19 09:37:02,45686,-222134
2024-12-19 09:37:02,45769,-221991
2024-12-19 09:37:02,42966,-223878
2024-12-19 09:37:02,42177,-224300
2024-12-19 09:37:02,41283,-224512
2024-12-19 09:37:02,40865,-224606
2024-12-19 09:37:02,41097,-224426
2024-12-19 09:37:02,41669,-224810
2024-12-19 09:37:02,42063,-224991
2024-12-19 09:37:02,41782,-225289
2024-12-19 09:37:02,41202,-225627
2024-12-19 09:37:02,41297,-225496
2024-12-19 09:37:02,40901,-225916
2024-12-19 09:37:02,40649,-226169
2024-12-19 09:37:02,39600,-225967
2024-12-19 09:37:02,38853,-225993
2024-12-19 09:37:02,39166,-226149
2024-12-19 09:37:02,39534,-226671
2024-12-19 09:37:02,39579,-227346
2024-12-19 09:37:02,38631,-226906
2024-12-19 09:37:02,39435,-227187
2024-12-19 09:37:02,39083,-227639
2024-12-19 09:37:02,38276,-227557
2024-12-19 09:37:02,37273,-227516
2024-12-19 09:37:02,36406,-227348
2024-12-19 09:37:02,36586,-227753
2024-12-19 09:37:02,36829,-227970
2024-12-19 09:37:02,37071,-228096
2024-12-19 09:37:02,36851,-228314
2024-12-19 09:37:02,36339,-228622
2024-12-19 09:37:02,36598,-228892
2024-12-19 09:37:02,36791,-228869
2024-12-19 09:37:02,35821,-228801
2024-12-19 09:37:02,35290,-229211
2024-12-19 09:37:02,34752,-229722
2024-12-19 09:37:02,34254,-229950
2024-12-19 09:37:02,33121,-230282
2024-12-19 09:37:02,33981,-231020
2024-12-19 09:37:02,34186,-231546
2024-12-19 09:37:02,34399,-231514
2024-12-19 09:37:02,33425,-231627
2024-12-19 09:37:02,31209,-232307
2024-12-19 09:37:02,31029,-232769
2024-12-19 09:37:02,30579,-232914
2024-12-19 09:37:02,30741,-233321
2024-12-19 09:37:02,31543,-234172
2024-12-19 09:37:02,32816,-234832
2024-12-19 09:37:02,32580,-235179
2024-12-19 09:37:02,32385,-235489
2024-12-19 09:37:02,31108,-235786
2024-12-19 09:37:02,30422,-236105
2024-12-19 09:37:02,30241,-236604
2024-12-19 09:37:02,29916,-236849
2024-12-19 09:37:02,29113,-237266
2024-12-19 09:37:02,29898,-238067
2024-12-19 09:37:02,29859,-238489
2024-12-19 09:37:02,29658,-238711
2024-12-19 09:37:02,29247,-239089
2024-12-19 09:37:02,27911,-239096
2024-12-19 09:37:02,27021,-239753
2024-12-19 09:37:02,25723,-240194
2024-12-19 09:37:02,25056,-240734
2024-12-19 09:37:02,26475,-241721
2024-12-19 09:37:02,28109,-242080
2024-12-19 09:37:02,29105,-242987
2024-12-19 09:37:02,28040,-243237
2024-12-19 09:37:02,27454,-243668
2024-12-19 09:37:02,27049,-243669
2024-12-19 09:37:02,26824,-244227
2024-12-19 09:37:02,25978,-244692
2024-12-19 09:37:02,24282,-245789
2024-12-19 09:37:02,24667,-247099
2024-12-19 09:37:02,24465,-248001
2024-12-19 09:37:02,24358,-248341
2024-12-19 09:37:02,24344,-248912
2024-12-19 09:37:02,22715,-249537
2024-12-19 09:37:02,22383,-250928
2024-12-19 09:37:02,22264,-252163
2024-12-19 09:37:02,22261,-252988
2024-12-19 09:37:02,21962,-253859
2024-12-19 09:37:02,22334,-254954
2024-12-19 09:37:02,21936,-255842
2024-12-19 09:37:02,21344,-256560
2024-12-19 09:37:02,20952,-257394
2024-12-19 09:37:02,19605,-258699
2024-12-19 09:37:02,19216,-260307
2024-12-19 09:37:03,18047,-261028
2024-12-19 09:37:03,17334,-261524
2024-12-19 09:37:03,17635,-262717
2024-12-19 09:37:03,18113,-263958
2024-12-19 09:37:03,17714,-265044
2024-12-19 09:37:03,16517,-266241
2024-12-19 09:37:03,15125,-267248
2024-12-19 09:37:03,14586,-268742
2024-12-19 09:37:03,14376,-269993
2024-12-19 09:37:03,14512,-271399
2024-12-19 09:37:03,13608,-272700
2024-12-19 09:37:03,12909,-273924
2024-12-19 09:37:03,11994,-274889
2024-12-19 09:37:03,11102,-275756
2024-12-19 09:37:03,10454,-276437
2024-12-19 09:37:03,9393,-277672
2024-12-19 09:37:03,9424,-278520
2024-12-19 09:37:03,7807,-279521
2024-12-19 09:37:03,6010,-280043
2024-12-19 09:37:03,6058,-280889
2024-12-19 09:37:03,6331,-282162
2024-12-19 09:37:03,6050,-283241
2024-12-19 09:37:03,5243,-283276
2024-12-19 09:37:03,2828,-283618
2024-12-19 09:37:03,1538,-284043
2024-12-19 09:37:03,-14,-283984
2024-12-19 09:37:03,-419,-284751
2024-12-19 09:37:03,-1875,-284741
2024-12-19 09:37:03,-359,-285147
2024-12-19 09:37:03,-179,-285281
2024-12-19 09:37:03,-476,-284908
2024-12-19 09:37:03,-1826,-284771
2024-12-19 09:37:03,-3625,-284570
2024-12-19 09:37:03,-4787,-284280
2024-12-19 09:37:03,-6071,-284014
2024-12-19 09:37:03,-8249,-283304
2024-12-19 09:37:03,-8949,-283021
2024-12-19 09:37:03,-9566,-281976
2024-12-19 09:37:03,-10406,-280907
2024-12-19 09:37:03,-11699,-280051
2024-12-19 09:37:03,-13852,-278959
2024-12-19 09:37:03,-14727,-278116
2024-12-19 09:37:03,-15341,-277586
2024-12-19 09:37:03,-16317,-276607
2024-12-19 09:37:03,-18503,-275199
2024-12-19 09:37:03,-19606,-274206
2024-12-19 09:37:03,-21224,-272586
2024-12-19 09:37:03,-23142,-271015
2024-12-19 09:37:03,-24092,-269115
2024-12-19 09:37:03,-25957,-267837
2024-12-19 09:37:03,-27017,-266797
2024-12-19 09:37:03,-28061,-265889
2024-12-19 09:37:03,-29838,-264671
2024-12-19 09:37:03,-30724,-263896
2024-12-19 09:37:03,-32094,-262307
2024-12-19 09:37:03,-33407,-260346
2024-12-19 09:37:03,-34757,-258417
2024-12-19 09:37:03,-35709,-257209
2024-12-19 09:37:03,-36146,-255856
2024-12-19 09:37:03,-36766,-254401
2024-12-19 09:37:03,-36804,-252703
2024-12-19 09:37:03,-37422,-251217
2024-12-19 09:37:03,-37221,-249636
2024-12-19 09:37:03,-37079,-248767
2024-12-19 09:37:03,-36806,-247053
2024-12-19 09:37:03,-36952,-245546
2024-12-19 09:37:03,-37502,-244007
2024-12-19 09:37:03,-37380,-242547
2024-12-19 09:37:03,-37192,-240991
2024-12-19 09:37:03,-37540,-239401
2024-12-19 09:37:03,-37360,-238596
2024-12-19 09:37:03,-37632,-237376
2024-12-19 09:37:03,-37717,-236201
2024-12-19 09:37:03,-38241,-235097
2024-12-19 09:37:03,-39490,-233798
2024-12-19 09:37:03,-39997,-233054
2024-12-19 09:37:03,-40387,-232544
2024-12-19 09:37:03,-40703,-231539
2024-12-19 09:37:03,-41632,-230801
2024-12-19 09:37:03,-41106,-229741
2024-12-19 09:37:03,-41287,-228856
2024-12-19 09:37:03,-41726,-228236
2024-12-19 09:37:03,-43376,-227586
2024-12-19 09:37:03,-44216,-227282
2024-12-19 09:37:03,-45139,-226431
2024-12-19 09:37:03,-46251,-225600
2024-12-19 09:37:03,-47221,-225294
2024-12-19 09:37:03,-48341,-224834
2024-12-19 09:37:03,-48516,-224047
2024-12-19 09:37:03,-48750,-222840
2024-12-19 09:37:03,-50152,-221835
2024-12-19 09:37:03,-51682,-221221
2024-12-19 09:37:03,-52824,-220826
2024-12-19 09:37:03,-54363,-219954
2024-12-19 09:37:03,-55512,-219602
2024-12-19 09:37:03,-56913,-218777
2024-12-19 09:37:03,-56044,-218230
2024-12-19 09:37:03,-56031,-217064
2024-12-19 09:37:03,-55845,-216105
2024-12-19 09:37:03,-56030,-214975
2024-12-19 09:37:03,-56969,-214545
2024-12-19 09:37:03,-56893,-213824
2024-12-19 09:37:03,-57414,-213667
2024-12-19 09:37:03,-57119,-213127
2024-12-19 09:37:03,-56675,-212367
2024-12-19 09:37:03,-54701,-210860
2024-12-19 09:37:03,-53352,-209481
2024-12-19 09:37:03,-52311,-208812
2024-12-19 09:37:03,-51980,-208529
2024-12-19 09:37:03,-52244,-208200
2024-12-19 09:37:03,-51352,-207715
2024-12-19 09:37:03,-50936,-207332
2024-12-19 09:37:03,-49792,-206857
2024-12-19 09:37:03,-46527,-206633
2024-12-19 09:37:03,-44634,-205207
2024-12-19 09:37:03,-42956,-205294
2024-12-19 09:37:03,-41798,-205036
2024-12-19 09:37:03,-41459,-205486
2024-12-19 09:37:03,-39486,-205417
2024-12-19 09:37:03,-37360,-205189
2024-12-19 09:37:03,-35744,-204810
2024-12-19 09:37:03,-33811,-204451
2024-12-19 09:37:03,-31354,-204007
2024-12-19 09:37:03,-28514,-203369
2024-12-19 09:37:03,-27454,-203168
2024-12-19 09:37:03,-25754,-202834
2024-12-19 09:37:03,-25027,-202777
2024-12-19 09:37:03,-22884,-202872
2024-12-19 09:37:03,-21333,-202373
2024-12-19 09:37:03,-20356,-202114
2024-12-19 09:37:03,-18332,-202047
2024-12-19 09:37:03,-16022,-201743
2024-12-19 09:37:03,-13929,-201572
2024-12-19 09:37:03,-13858,-201140
2024-12-19 09:37:03,-14128,-200988
2024-12-19 09:37:03,-13029,-201214
2024-12-19 09:37:03,-12677,-201299
2024-12-19 09:37:03,-11865,-201341
2024-12-19 09:37:03,-11236,-201721
2024-12-19 09:37:03,-9957,-201721
2024-12-19 09:37:03,-8766,-201716
2024-12-19 09:37:03,-9032,-201522
2024-12-19 09:37:03,-9337,-201646
2024-12-19 09:37:03,-9846,-202362
2024-12-19 09:37:03,-9445,-202719
2024-12-19 09:37:03,-9501,-203197
2024-12-19 09:37:03,-9297,-203077
2024-12-19 09:37:03,-8326,-203344
2024-12-19 09:37:03,-7923,-203288
2024-12-19 09:37:03,-7639,-203486
2024-12-19 09:37:03,-8093,-203665
2024-12-19 09:37:03,-8766,-204149
2024-12-19 09:37:03,-9166,-204269
2024-12-19 09:37:03,-9583,-204727
2024-12-19 09:37:03,-10499,-205140
2024-12-19 09:37:03,-12015,-205282
2024-12-19 09:37:03,-11616,-205772
2024-12-19 09:37:03,-11363,-205719
2024-12-19 09:37:03,-12369,-207099
2024-12-19 09:37:03,-14607,-206956
2024-12-19 09:37:03,-17370,-207278
2024-12-19 09:37:03,-18084,-207458
2024-12-19 09:37:03,-19098,-207719
2024-12-19 09:37:03,-20409,-207827
2024-12-19 09:37:03,-19561,-208232
2024-12-19 09:37:03,-19884,-208124
2024-12-19 09:37:03,-20204,-207890
2024-12-19 09:37:03,-20819,-207901
2024-12-19 09:37:03,-22699,-208098
2024-12-19 09:37:03,-23434,-208797
2024-12-19 09:37:03,-23242,-209295
2024-12-19 09:37:03,-24010,-209246
2024-12-19 09:37:03,-25327,-209517
2024-12-19 09:37:03,-24126,-209699
2024-12-19 09:37:03,-22847,-209811
2024-12-19 09:37:03,-22968,-209663
2024-12-19 09:37:03,-23732,-209694
2024-12-19 09:37:03,-25138,-209986
2024-12-19 09:37:03,-25221,-210212
2024-12-19 09:37:03,-25477,-210434
2024-12-19 09:37:03,-26351,-210644
2024-12-19 09:37:03,-25194,-210649
2024-12-19 09:37:03,-23971,-210515
2024-12-19 09:37:03,-23773,-210501
2024-12-19 09:37:03,-24139,-210542
2024-12-19 09:37:03,-24608,-210667
2024-12-19 09:37:03,-24838,-211020
2024-12-19 09:37:03,-24610,-211134
2024-12-19 09:37:03,-24606,-211676
2024-12-19 09:37:03,-25420,-211738
2024-12-19 09:37:03,-24071,-211826
2024-12-19 09:37:03,-22744,-212317
2024-12-19 09:37:03,-21881,-212111
2024-12-19 09:37:03,-22069,-212136
2024-12-19 09:37:03,-23260,-212339
2024-12-19 09:37:03,-22352,-212501
2024-12-19 09:37:03,-21992,-213234
2024-12-19 09:37:03,-23105,-213390
2024-12-19 09:37:03,-22423,-213460
2024-12-19 09:37:03,-20798,-213381
2024-12-19 09:37:03,-19459,-213511
2024-12-19 09:37:03,-19613,-213556
2024-12-19 09:37:03,-20326,-213236
2024-12-19 09:37:03,-20091,-213417
2024-12-19 09:37:03,-20439,-212918
2024-12-19 09:37:03,-20304,-213386
2024-12-19 09:37:03,-19927,-214446
2024-12-19 09:37:03,-18061,-214779
2024-12-19 09:37:03,-16763,-215082
2024-12-19 09:37:03,-15617,-214652
2024-12-19 09:37:03,-14880,-214681
2024-12-19 09:37:03,-15654,-215335
2024-12-19 09:37:03,-15297,-215869
2024-12-19 09:37:03,-15632,-216297
2024-12-19 09:37:03,-17141,-216537
2024-12-19 09:37:03,-16975,-216793
2024-12-19 09:37:03,-15476,-216657
2024-12-19 09:37:03,-14651,-216426
2024-12-19 09:37:03,-14244,-216564
2024-12-19 09:37:03,-14941,-216793
2024-12-19 09:37:03,-16027,-217095
2024-12-19 09:37:03,-15769,-217199
2024-12-19 09:37:03,-15191,-217127
2024-12-19 09:37:03,-15389,-217133
2024-12-19 09:37:03,-13626,-217429
2024-12-19 09:37:03,-12022,-217052
2024-12-19 09:37:03,-11977,-217096
2024-12-19 09:37:03,-13509,-217664
2024-12-19 09:37:03,-13917,-217422
2024-12-19 09:37:03,-14242,-217638
2024-12-19 09:37:03,-13209,-217957
2024-12-19 09:37:03,-13258,-218320
2024-12-19 09:37:03,-11689,-218346
2024-12-19 09:37:03,-10929,-218214
2024-12-19 09:37:03,-11176,-218098
2024-12-19 09:37:03,-12604,-218304
2024-12-19 09:37:03,-13498,-218657
2024-12-19 09:37:03,-12512,-219054
2024-12-19 09:37:03,-12586,-219311
2024-12-19 09:37:03,-12720,-219580
2024-12-19 09:37:03,-10937,-219371
2024-12-19 09:37:03,-10443,-219268
2024-12-19 09:37:03,-10466,-219207
2024-12-19 09:37:03,-10936,-219437
2024-12-19 09:37:03,-13405,-219877
2024-12-19 09:37:03,-13672,-219906
2024-12-19 09:37:03,-14012,-220102
2024-12-19 09:37:03,-14270,-220316
2024-12-19 09:37:03,-15007,-220508
2024-12-19 09:37:03,-13486,-220110
2024-12-19 09:37:03,-12981,-219534
2024-12-19 09:37:03,-13424,-219813
2024-12-19 09:37:03,-14432,-220697
2024-12-19 09:37:03,-16310,-221404
2024-12-19 09:37:03,-16708,-221597
2024-12-19 09:37:03,-16479,-221469
2024-12-19 09:37:03,-16926,-222229
2024-12-19 09:37:03,-15636,-222128
2024-12-19 09:37:03,-15686,-221842
2024-12-19 09:37:03,-15872,-221875
2024-12-19 09:37:03,-16838,-221466
2024-12-19 09:37:03,-17148,-221479
2024-12-19 09:37:03,-17744,-221847
2024-12-19 09:37:03,-18689,-222107
2024-12-19 09:37:03,-19360,-223246
2024-12-19 09:37:03,-18930,-224207
2024-12-19 09:37:03,-18696,-224248
2024-12-19 09:37:03,-18839,-223904
2024-12-19 09:37:03,-19207,-223386
2024-12-19 09:37:03,-20119,-223184
2024-12-19 09:37:03,-22352,-223432
2024-12-19 09:37:03,-23932,-223587
2024-12-19 09:37:03,-24497,-223596
2024-12-19 09:37:03,-23102,-223735
2024-12-19 09:37:03,-22407,-223972
2024-12-19 09:37:03,-22508,-223870
2024-12-19 09:37:03,-22025,-223794
2024-12-19 09:37:03,-21639,-224016
2024-12-19 09:37:03,-23361,-224129
2024-12-19 09:37:03,-24642,-224362
2024-12-19 09:37:03,-26360,-224632
2024-12-19 09:37:03,-27087,-225194
2024-12-19 09:37:03,-27767,-225424
2024-12-19 09:37:03,-26487,-225491
2024-12-19 09:37:03,-25603,-225361
2024-12-19 09:37:03,-25951,-225151
2024-12-19 09:37:03,-27080,-225077
2024-12-19 09:37:03,-29945,-225610
2024-12-19 09:37:03,-30154,-226019
2024-12-19 09:37:03,-30626,-225974
2024-12-19 09:37:03,-31211,-226192
2024-12-19 09:37:03,-30938,-226601
2024-12-19 09:37:03,-31059,-227088
2024-12-19 09:37:03,-31762,-227117
2024-12-19 09:37:03,-32414,-226983
2024-12-19 09:37:03,-34439,-227345
2024-12-19 09:37:03,-36524,-227225
2024-12-19 09:37:03,-37626,-227747
2024-12-19 09:37:03,-37756,-228063
2024-12-19 09:37:03,-37324,-228127
2024-12-19 09:37:03,-35664,-227852
2024-12-19 09:37:03,-34309,-227447
2024-12-19 09:37:03,-33796,-227004
2024-12-19 09:37:03,-35486,-227254
2024-12-19 09:37:03,-36951,-228204
2024-12-19 09:37:03,-36941,-229206
2024-12-19 09:37:03,-37107,-229580
2024-12-19 09:37:03,-36990,-229972
2024-12-19 09:37:03,-37996,-230157
2024-12-19 09:37:03,-38871,-229623
2024-12-19 09:37:03,-39140,-229073
2024-12-19 09:37:03,-40501,-228523
2024-12-19 09:37:03,-40329,-228064
2024-12-19 09:37:03,-39077,-228437
2024-12-19 09:37:03,-39669,-229185
2024-12-19 09:37:03,-40135,-230426
2024-12-19 09:37:03,-40770,-231253
2024-12-19 09:37:03,-41076,-231296
2024-12-19 09:37:03,-40789,-231282
2024-12-19 09:37:03,-40539,-231402
2024-12-19 09:37:03,-41092,-231222
2024-12-19 09:37:03,-42309,-231199
2024-12-19 09:37:03,-42598,-231428
2024-12-19 09:37:03,-42109,-231701
2024-12-19 09:37:03,-39773,-232231
2024-12-19 09:37:03,-35443,-232754
2024-12-19 09:37:03,-32204,-233203
2024-12-19 09:37:03,-33127,-233212
2024-12-19 09:37:03,-34756,-233106
2024-12-19 09:37:03,-34957,-233323
2024-12-19 09:37:03,-34490,-233642
2024-12-19 09:37:03,-33191,-234032
2024-12-19 09:37:03,-31013,-234407
2024-12-19 09:37:03,-31811,-235002
2024-12-19 09:37:03,-31560,-235525
2024-12-19 09:37:03,-31851,-235653
2024-12-19 09:37:03,-31881,-235908
2024-12-19 09:37:03,-31713,-236001
2024-12-19 09:37:03,-31844,-236340
2024-12-19 09:37:03,-30971,-236387
2024-12-19 09:37:03,-30286,-236829
2024-12-19 09:37:03,-30561,-238388
2024-12-19 09:37:03,-29447,-238772
2024-12-19 09:37:03,-29244,-238672
2024-12-19 09:37:03,-28092,-238493
2024-12-19 09:37:03,-27991,-239049
2024-12-19 09:37:03,-30570,-239074
2024-12-19 09:37:03,-31166,-239131
2024-12-19 09:37:03,-30122,-239432
2024-12-19 09:37:03,-29513,-240166
2024-12-19 09:37:03,-31097,-240592
2024-12-19 09:37:03,-30944,-240787
2024-12-19 09:37:03,-29695,-240347
2024-12-19 09:37:03,-29339,-240456
2024-12-19 09:37:03,-30528,-241031
2024-12-19 09:37:03,-31073,-241058
2024-12-19 09:37:03,-32048,-241329
2024-12-19 09:37:03,-32850,-241289
2024-12-19 09:37:03,-33721,-241620
2024-12-19 09:37:03,-35569,-241942
2024-12-19 09:37:03,-37227,-242152
2024-12-19 09:37:03,-37796,-241667
2024-12-19 09:37:03,-36815,-240975
2024-12-19 09:37:03,-33894,-241324
2024-12-19 09:37:03,-32254,-242007
2024-12-19 09:37:03,-30007,-242382
2024-12-19 09:37:03,-30289,-242479
2024-12-19 09:37:03,-28499,-242466
2024-12-19 09:37:03,-27531,-242241
2024-12-19 09:37:03,-26871,-242535
2024-12-19 09:37:03,-27339,-241964
2024-12-19 09:37:03,-30048,-242043
2024-12-19 09:37:03,-30981,-241787
2024-12-19 09:37:03,-31615,-241784
2024-12-19 09:37:03,-32421,-241739
2024-12-19 09:37:03,-32476,-241139
2024-12-19 09:37:03,-31161,-240790
2024-12-19 09:37:03,-32149,-240436
2024-12-19 09:37:03,-34082,-240466
2024-12-19 09:37:03,-35491,-240476
2024-12-19 09:37:03,-36069,-240671
2024-12-19 09:37:03,-35576,-240571
2024-12-19 09:37:03,-35412,-239897
2024-12-19 09:37:03,-35374,-239042
2024-12-19 09:37:03,-32589,-237919
2024-12-19 09:37:03,-31186,-237838
2024-12-19 09:37:03,-30526,-237662
2024-12-19 09:37:03,-31332,-237274
2024-12-19 09:37:03,-32811,-237124
2024-12-19 09:37:03,-34351,-236494
2024-12-19 09:37:03,-34891,-235897
2024-12-19 09:37:03,-32597,-235989
2024-12-19 09:37:03,-32042,-236662
2024-12-19 09:37:03,-30625,-237057
2024-12-19 09:37:03,-32844,-236743
2024-12-19 09:37:03,-32939,-236076
2024-12-19 09:37:03,-34396,-235561
2024-12-19 09:37:03,-34287,-235373
2024-12-19 09:37:03,-34136,-235900
2024-12-19 09:37:03,-34776,-236109
2024-12-19 09:37:03,-37422,-235937
2024-12-19 09:37:03,-39164,-235037
2024-12-19 09:37:03,-38135,-234313
2024-12-19 09:37:03,-37572,-233880
2024-12-19 09:37:03,-35194,-233821
2024-12-19 09:37:03,-29699,-234970
2024-12-19 09:37:03,-30276,-235902
2024-12-19 09:37:03,-36005,-235262
2024-12-19 09:37:03,-36616,-235012
2024-12-19 09:37:03,-38460,-234285
2024-12-19 09:37:03,-40720,-234446
2024-12-19 09:37:03,-37849,-234924
2024-12-19 09:37:03,-37776,-235128
2024-12-19 09:37:03,-39460,-235143
2024-12-19 09:37:03,-43761,-235021
2024-12-19 09:37:03,-40802,-234817
2024-12-19 09:37:03,-38475,-234839
2024-12-19 09:37:03,-37970,-235127
2024-12-19 09:37:03,-37226,-235709
2024-12-19 09:37:03,-35352,-236298
2024-12-19 09:37:03,-33419,-235997
2024-12-19 09:37:03,-31929,-235356
2024-12-19 09:37:03,-33714,-234692
2024-12-19 09:37:03,-37247,-234765
2024-12-19 09:37:03,-37877,-234819
2024-12-19 09:37:03,-38725,-234710
2024-12-19 09:37:03,-39717,-234468
2024-12-19 09:37:03,-38877,-234747
2024-12-19 09:37:03,-37597,-235136
2024-12-19 09:37:03,-37688,-234934
2024-12-19 09:37:03,-38155,-235154
2024-12-19 09:37:03,-34832,-235824
2024-12-19 09:37:03,-30954,-235950
2024-12-19 09:37:03,-30069,-236321
2024-12-19 09:37:03,-31151,-236308
2024-12-19 09:37:03,-31306,-236467
2024-12-19 09:37:03,-29366,-236526
2024-12-19 09:37:03,-30493,-235920
2024-12-19 09:37:03,-33092,-235671
2024-12-19 09:37:03,-33497,-235629
2024-12-19 09:37:03,-35098,-236293
2024-12-19 09:37:03,-36848,-235776
2024-12-19 09:37:03,-38257,-236449
2024-12-19 09:37:03,-39107,-237071
2024-12-19 09:37:03,-37611,-237634
2024-12-19 09:37:03,-39919,-237414
2024-12-19 09:37:03,-39814,-236881
2024-12-19 09:37:03,-41012,-236551
2024-12-19 09:37:03,-37112,-236634
2024-12-19 09:37:03,-35930,-236518
2024-12-19 09:37:03,-34972,-236719
2024-12-19 09:37:03,-38374,-236613
2024-12-19 09:37:03,-38309,-236729
2024-12-19 09:37:03,-37162,-237147
2024-12-19 09:37:03,-37627,-237035
2024-12-19 09:37:03,-38104,-236978
2024-12-19 09:37:03,-37519,-236711
2024-12-19 09:37:03,-37277,-237800
2024-12-19 09:37:03,-37254,-237483
2024-12-19 09:37:03,-38131,-237190
2024-12-19 09:37:03,-38294,-236202
2024-12-19 09:37:03,-38957,-235586
2024-12-19 09:37:03,-38664,-234903
2024-12-19 09:37:03,-36604,-235111
2024-12-19 09:37:03,-35178,-235837
2024-12-19 09:37:03,-32901,-236522
2024-12-19 09:37:03,-33678,-237115
2024-12-19 09:37:03,-34101,-237187
2024-12-19 09:37:03,-35227,-236651
2024-12-19 09:37:03,-36231,-235847
2024-12-19 09:37:03,-36506,-235336
2024-12-19 09:37:03,-36157,-234359
2024-12-19 09:37:03,-35504,-233902
2024-12-19 09:37:03,-33991,-233816
2024-12-19 09:37:03,-32795,-234159
2024-12-19 09:37:03,-32530,-233932
2024-12-19 09:37:03,-35227,-233552
2024-12-19 09:37:03,-36362,-233549
2024-12-19 09:37:03,-35235,-233449
2024-12-19 09:37:03,-34996,-232457
2024-12-19 09:37:03,-34403,-231346
2024-12-19 09:37:03,-32747,-231149
2024-12-19 09:37:03,-32499,-230652
2024-12-19 09:37:03,-31355,-230877
2024-12-19 09:37:03,-29218,-230934
2024-12-19 09:37:03,-27184,-230566
2024-12-19 09:37:03,-26916,-230336
2024-12-19 09:37:03,-27115,-230604
2024-12-19 09:37:03,-28840,-229736
2024-12-19 09:37:03,-29631,-228972
2024-12-19 09:37:03,-30001,-228926
2024-12-19 09:37:03,-30629,-228394
2024-12-19 09:37:03,-30809,-228319
2024-12-19 09:37:03,-31574,-227781
2024-12-19 09:37:03,-32329,-227948
2024-12-19 09:37:03,-29932,-227894
2024-12-19 09:37:03,-28879,-228154
2024-12-19 09:37:03,-28814,-228831
2024-12-19 09:37:03,-28752,-228230
2024-12-19 09:37:03,-30016,-228052
2024-12-19 09:37:03,-28769,-229147
2024-12-19 09:37:04,-29215,-229408
2024-12-19 09:37:04,-30696,-229908
2024-12-19 09:37:04,-32676,-229611
2024-12-19 09:37:04,-33376,-230137
2024-12-19 09:37:04,-33656,-229150
2024-12-19 09:37:04,-32751,-228680
2024-12-19 09:37:04,-32236,-228543
2024-12-19 09:37:04,-33261,-228451
2024-12-19 09:37:04,-32471,-228556
2024-12-19 09:37:04,-31749,-228381
2024-12-19 09:37:04,-30053,-228529
2024-12-19 09:37:04,-26482,-228561
2024-12-19 09:37:04,-26098,-228637
2024-12-19 09:37:04,-25137,-227792
2024-12-19 09:37:04,-23306,-227364
2024-12-19 09:37:04,-22830,-227244
2024-12-19 09:37:04,-23039,-227236
2024-12-19 09:37:04,-24257,-226992
2024-12-19 09:37:04,-25199,-225995
2024-12-19 09:37:04,-25781,-225956
2024-12-19 09:37:04,-25906,-226132
2024-12-19 09:37:04,-26882,-225756
2024-12-19 09:37:04,-27888,-225229
2024-12-19 09:37:04,-28731,-225301
2024-12-19 09:37:04,-28150,-225846
2024-12-19 09:37:04,-23808,-226294
2024-12-19 09:37:04,-22651,-226442
2024-12-19 09:37:04,-22779,-226721
2024-12-19 09:37:04,-23726,-226639
2024-12-19 09:37:04,-22981,-226809
2024-12-19 09:37:04,-23188,-226780
2024-12-19 09:37:04,-22630,-226622
2024-12-19 09:37:04,-22322,-226654
2024-12-19 09:37:04,-22778,-227097
2024-12-19 09:37:04,-22910,-227349
2024-12-19 09:37:04,-23005,-227238
2024-12-19 09:37:04,-23575,-227354
2024-12-19 09:37:04,-24379,-227161
2024-12-19 09:37:04,-24039,-226759
2024-12-19 09:37:04,-23353,-226716
2024-12-19 09:37:04,-22727,-226852
2024-12-19 09:37:04,-22622,-227752
2024-12-19 09:37:04,-22787,-228164
2024-12-19 09:37:04,-22111,-228205
2024-12-19 09:37:04,-22218,-228896
2024-12-19 09:37:04,-23396,-229194
2024-12-19 09:37:04,-23422,-229076
2024-12-19 09:37:04,-24510,-228814
2024-12-19 09:37:04,-24281,-228712
2024-12-19 09:37:04,-24110,-229089
2024-12-19 09:37:04,-24869,-229554
2024-12-19 09:37:04,-25768,-230117
2024-12-19 09:37:04,-26929,-230518
2024-12-19 09:37:04,-26527,-230663
2024-12-19 09:37:04,-23822,-231036
2024-12-19 09:37:04,-23621,-230893
2024-12-19 09:37:04,-25354,-230832
2024-12-19 09:37:04,-27406,-231024
2024-12-19 09:37:04,-28388,-231290
2024-12-19 09:37:04,-29556,-231956
2024-12-19 09:37:04,-30387,-232241
2024-12-19 09:37:04,-30719,-232662
2024-12-19 09:37:04,-30841,-233123
2024-12-19 09:37:04,-31319,-233266
2024-12-19 09:37:04,-31945,-233179
2024-12-19 09:37:04,-32856,-233237
2024-12-19 09:37:04,-32944,-233318
2024-12-19 09:37:04,-33593,-234007
2024-12-19 09:37:04,-34047,-234258
2024-12-19 09:37:04,-34714,-234436
2024-12-19 09:37:04,-34769,-234564
2024-12-19 09:37:04,-34929,-234936
2024-12-19 09:37:04,-34327,-235050
2024-12-19 09:37:04,-34954,-233963
2024-12-19 09:37:04,-35787,-233789
2024-12-19 09:37:04,-36109,-234974
2024-12-19 09:37:04,-37636,-235567
2024-12-19 09:37:04,-38563,-235901
2024-12-19 09:37:04,-39163,-236554
2024-12-19 09:37:04,-40233,-237499
2024-12-19 09:37:04,-41581,-237309
2024-12-19 09:37:04,-42809,-237262
2024-12-19 09:37:04,-44022,-237379
2024-12-19 09:37:04,-45486,-237769
2024-12-19 09:37:04,-46949,-238584
2024-12-19 09:37:04,-48309,-239659
2024-12-19 09:37:04,-50063,-239959
2024-12-19 09:37:04,-51936,-240155
2024-12-19 09:37:04,-53274,-241338
2024-12-19 09:37:04,-54051,-241446
2024-12-19 09:37:04,-54540,-241102
2024-12-19 09:37:04,-54711,-241166
2024-12-19 09:37:04,-54731,-241946
2024-12-19 09:37:04,-55501,-243185
2024-12-19 09:37:04,-55585,-244277
2024-12-19 09:37:04,-55386,-244453
2024-12-19 09:37:04,-54974,-245329
2024-12-19 09:37:04,-54681,-245411
2024-12-19 09:37:04,-55976,-245691
2024-12-19 09:37:04,-56884,-245812
2024-12-19 09:37:04,-56938,-246022
2024-12-19 09:37:04,-55789,-247327
2024-12-19 09:37:04,-55366,-248671
2024-12-19 09:37:04,-55087,-249586
2024-12-19 09:37:04,-53618,-250637
2024-12-19 09:37:04,-53919,-251368
2024-12-19 09:37:04,-53780,-251531
2024-12-19 09:37:04,-53561,-251872
2024-12-19 09:37:04,-52603,-252224
2024-12-19 09:37:04,-51385,-252966
2024-12-19 09:37:04,-48779,-253968
2024-12-19 09:37:04,-47811,-254281
2024-12-19 09:37:04,-46816,-254600
2024-12-19 09:37:04,-45941,-254694
2024-12-19 09:37:04,-44262,-255277
2024-12-19 09:37:04,-42522,-255109
2024-12-19 09:37:04,-41029,-254849
2024-12-19 09:37:04,-39832,-255140
2024-12-19 09:37:04,-37319,-256017
2024-12-19 09:37:04,-35234,-256899
2024-12-19 09:37:04,-33532,-257217
2024-12-19 09:37:04,-30584,-257195
2024-12-19 09:37:04,-27124,-257587
2024-12-19 09:37:04,-25947,-257373
2024-12-19 09:37:04,-24923,-257044
2024-12-19 09:37:04,-24124,-256744
2024-12-19 09:37:04,-23727,-256928
2024-12-19 09:37:04,-24678,-257489
2024-12-19 09:37:04,-24754,-257758
2024-12-19 09:37:04,-25115,-257422
2024-12-19 09:37:04,-24474,-257451
2024-12-19 09:37:04,-25329,-257211
2024-12-19 09:37:04,-26412,-256923
2024-12-19 09:37:04,-26519,-256006
2024-12-19 09:37:04,-26611,-255311
2024-12-19 09:37:04,-26231,-255382
2024-12-19 09:37:04,-26254,-256060
2024-12-19 09:37:04,-27101,-255494
2024-12-19 09:37:04,-31710,-255009
2024-12-19 09:37:04,-34464,-255203
2024-12-19 09:37:04,-37129,-254449
2024-12-19 09:37:04,-39640,-253227
2024-12-19 09:37:04,-41921,-252414
2024-12-19 09:37:04,-42957,-252124
2024-12-19 09:37:04,-44792,-252685
2024-12-19 09:37:04,-48597,-252346
2024-12-19 09:37:04,-50629,-251945
2024-12-19 09:37:04,-51002,-251204
2024-12-19 09:37:04,-50098,-250930
2024-12-19 09:37:04,-49567,-249710
2024-12-19 09:37:04,-49009,-248646
2024-12-19 09:37:04,-48921,-248177
2024-12-19 09:37:04,-48901,-248161
2024-12-19 09:37:04,-48941,-249130
2024-12-19 09:37:04,-49671,-249014
2024-12-19 09:37:04,-50678,-249264
2024-12-19 09:37:04,-50997,-248587
2024-12-19 09:37:04,-50946,-247845
2024-12-19 09:37:04,-52937,-247162
2024-12-19 09:37:04,-52772,-246362
2024-12-19 09:37:04,-51243,-246078
2024-12-19 09:37:04,-52013,-245776
2024-12-19 09:37:04,-52787,-245722
2024-12-19 09:37:04,-56207,-245314
2024-12-19 09:37:04,-56693,-245420
2024-12-19 09:37:04,-57071,-245495
2024-12-19 09:37:04,-56607,-244127
2024-12-19 09:37:04,-57099,-242759
2024-12-19 09:37:04,-58126,-242633
2024-12-19 09:37:04,-59191,-242638
2024-12-19 09:37:04,-60044,-242889
2024-12-19 09:37:04,-59437,-242357
2024-12-19 09:37:04,-59131,-241976
2024-12-19 09:37:04,-59282,-242087
2024-12-19 09:37:04,-58865,-241992
2024-12-19 09:37:04,-58180,-240885
2024-12-19 09:37:04,-58614,-239737
2024-12-19 09:37:04,-58445,-239470
2024-12-19 09:37:04,-59131,-239967
2024-12-19 09:37:04,-58579,-240013
2024-12-19 09:37:04,-58612,-239806
2024-12-19 09:37:04,-59537,-239476
2024-12-19 09:37:04,-59416,-239195
2024-12-19 09:37:04,-58402,-238198
2024-12-19 09:37:04,-56793,-237120
2024-12-19 09:37:04,-56107,-236284
2024-12-19 09:37:04,-55152,-236399
2024-12-19 09:37:04,-55403,-236431
2024-12-19 09:37:04,-55677,-235966
2024-12-19 09:37:04,-55341,-235598
2024-12-19 09:37:04,-55248,-235736
2024-12-19 09:37:04,-54702,-234085
2024-12-19 09:37:04,-53779,-232652
2024-12-19 09:37:04,-52939,-232257
2024-12-19 09:37:04,-51467,-231626
2024-12-19 09:37:04,-52157,-232116
2024-12-19 09:37:04,-51469,-232367
2024-12-19 09:37:04,-50826,-231819
2024-12-19 09:37:04,-50547,-231148
2024-12-19 09:37:04,-50031,-230849
2024-12-19 09:37:04,-48522,-229687
2024-12-19 09:37:04,-48574,-228996
2024-12-19 09:37:04,-48841,-228804
2024-12-19 09:37:04,-47542,-228756
2024-12-19 09:37:04,-45567,-228980
2024-12-19 09:37:04,-43388,-228635
2024-12-19 09:37:04,-42547,-228214
2024-12-19 09:37:04,-41052,-228171
2024-12-19 09:37:04,-37850,-226994
2024-12-19 09:37:04,-36337,-225477
2024-12-19 09:37:04,-35100,-224254
2024-12-19 09:37:04,-34712,-223806
2024-12-19 09:37:04,-35517,-224616
2024-12-19 09:37:04,-35187,-224600
2024-12-19 09:37:04,-34196,-223994
2024-12-19 09:37:04,-33512,-224106
2024-12-19 09:37:04,-33169,-224565
2024-12-19 09:37:04,-30337,-223773
2024-12-19 09:37:04,-27912,-222674
2024-12-19 09:37:04,-26217,-221832
2024-12-19 09:37:04,-26461,-221868
2024-12-19 09:37:04,-26971,-222549
2024-12-19 09:37:04,-25392,-222375
2024-12-19 09:37:04,-23106,-222059
2024-12-19 09:37:04,-24899,-221852
2024-12-19 09:37:04,-21997,-221417
2024-12-19 09:37:04,-20069,-220057
2024-12-19 09:37:04,-18570,-218598
2024-12-19 09:37:04,-18392,-218607
2024-12-19 09:37:04,-20221,-219309
2024-12-19 09:37:04,-20283,-219674
2024-12-19 09:37:04,-20766,-219873
2024-12-19 09:37:04,-21837,-220004
2024-12-19 09:37:04,-21931,-220227
2024-12-19 09:37:04,-20832,-219754
2024-12-19 09:37:04,-18060,-219124
2024-12-19 09:37:04,-17672,-218681
2024-12-19 09:37:04,-18937,-218626
2024-12-19 09:37:04,-22810,-219402
2024-12-19 09:37:04,-23797,-219652
2024-12-19 09:37:04,-22332,-219674
2024-12-19 09:37:04,-22238,-219464
2024-12-19 09:37:04,-21941,-219689
2024-12-19 09:37:04,-21503,-218192
2024-12-19 09:37:04,-20958,-216454
2024-12-19 09:37:04,-22050,-216162
2024-12-19 09:37:04,-23726,-217021
2024-12-19 09:37:04,-24652,-216719
2024-12-19 09:37:04,-24987,-216924
2024-12-19 09:37:04,-24977,-217604
2024-12-19 09:37:04,-26331,-218010
2024-12-19 09:37:04,-24478,-217630
2024-12-19 09:37:04,-23409,-217205
2024-12-19 09:37:04,-23505,-217029
2024-12-19 09:37:04,-24559,-217311
2024-12-19 09:37:04,-26342,-218269
2024-12-19 09:37:04,-26187,-218959
2024-12-19 09:37:04,-26967,-219239
2024-12-19 09:37:04,-28253,-219374
2024-12-19 09:37:04,-29053,-219939
2024-12-19 09:37:04,-28086,-219430
2024-12-19 09:37:04,-26739,-218712
2024-12-19 09:37:04,-27044,-218312
2024-12-19 09:37:04,-28815,-218744
2024-12-19 09:37:04,-30359,-219547
2024-12-19 09:37:04,-29946,-219262
2024-12-19 09:37:04,-29279,-219094
2024-12-19 09:37:04,-29341,-219677
2024-12-19 09:37:04,-25606,-218946
2024-12-19 09:37:04,-22621,-217977
2024-12-19 09:37:04,-21061,-217671
2024-12-19 09:37:04,-21079,-218050
2024-12-19 09:37:04,-22466,-218936
2024-12-19 09:37:04,-21502,-219217
2024-12-19 09:37:04,-21036,-219209
2024-12-19 09:37:04,-20639,-219361
2024-12-19 09:37:04,-20707,-220022
2024-12-19 09:37:04,-18392,-218735
2024-12-19 09:37:04,-15381,-218438
2024-12-19 09:37:04,-14307,-218292
2024-12-19 09:37:04,-15309,-218983
2024-12-19 09:37:04,-16592,-220054
2024-12-19 09:37:04,-15821,-220199
2024-12-19 09:37:04,-14845,-220331
2024-12-19 09:37:04,-15941,-220947
2024-12-19 09:37:04,-12699,-220424
2024-12-19 09:37:04,-9567,-219804
2024-12-19 09:37:04,-7236,-219186
2024-12-19 09:37:04,-7526,-221035
2024-12-19 09:37:04,-9144,-222664
2024-12-19 09:37:04,-9052,-223017
2024-12-19 09:37:04,-8792,-222770
2024-12-19 09:37:04,-8953,-222672
2024-12-19 09:37:04,-7030,-222426
2024-12-19 09:37:04,-4673,-221494
2024-12-19 09:37:04,-3857,-221036
2024-12-19 09:37:04,-2542,-220724
2024-12-19 09:37:04,-3818,-221122
2024-12-19 09:37:04,-5023,-222316
2024-12-19 09:37:04,-4571,-222531
2024-12-19 09:37:04,-3826,-222674
2024-12-19 09:37:04,-5067,-223045
2024-12-19 09:37:04,-3040,-222756
2024-12-19 09:37:04,-932,-222154
2024-12-19 09:37:04,328,-221987
2024-12-19 09:37:04,209,-222272
2024-12-19 09:37:04,-1633,-223492
2024-12-19 09:37:04,-1999,-223941
2024-12-19 09:37:04,-2002,-224151
2024-12-19 09:37:04,-2171,-224312
2024-12-19 09:37:04,-1556,-224521
2024-12-19 09:37:04,314,-223651
2024-12-19 09:37:04,1381,-222721
2024-12-19 09:37:04,1421,-222556
2024-12-19 09:37:04,-762,-223126
2024-12-19 09:37:04,-2075,-223486
2024-12-19 09:37:04,-2036,-223860
2024-12-19 09:37:04,-1358,-224011
2024-12-19 09:37:04,-998,-223942
2024-12-19 09:37:04,709,-223836
2024-12-19 09:37:04,2361,-223173
2024-12-19 09:37:04,3248,-222489
2024-12-19 09:37:04,3213,-222329
2024-12-19 09:37:04,1081,-222876
2024-12-19 09:37:04,-8,-223311
2024-12-19 09:37:04,-97,-223172
2024-12-19 09:37:04,-14,-222952
2024-12-19 09:37:04,-1029,-223429
2024-12-19 09:37:04,147,-222873
2024-12-19 09:37:04,767,-222621
2024-12-19 09:37:04,80,-222666
2024-12-19 09:37:04,-2151,-223190
2024-12-19 09:37:04,-4122,-224009
2024-12-19 09:37:04,-2729,-223908
2024-12-19 09:37:04,-2936,-224388
2024-12-19 09:37:04,-4506,-224956
2024-12-19 09:37:04,-2736,-224491
2024-12-19 09:37:04,-1026,-223952
2024-12-19 09:37:04,739,-223205
2024-12-19 09:37:04,814,-222786
2024-12-19 09:37:04,-1606,-223530
2024-12-19 09:37:04,-2934,-224217
2024-12-19 09:37:04,-2892,-224142
2024-12-19 09:37:04,-3374,-224122
2024-12-19 09:37:04,-4929,-224626
2024-12-19 09:37:04,-2885,-223726
2024-12-19 09:37:04,-1182,-222727
2024-12-19 09:37:04,-796,-222522
2024-12-19 09:37:04,-3352,-222887
2024-12-19 09:37:04,-5289,-223906
2024-12-19 09:37:04,-4912,-224167
2024-12-19 09:37:04,-4565,-224014
2024-12-19 09:37:04,-6405,-224489
2024-12-19 09:37:04,-4166,-224112
2024-12-19 09:37:04,-2185,-223518
2024-12-19 09:37:04,-906,-223296
2024-12-19 09:37:04,-1131,-223292
2024-12-19 09:37:04,-3386,-223875
2024-12-19 09:37:04,-5632,-224868
2024-12-19 09:37:04,-5241,-225001
2024-12-19 09:37:04,-4986,-225027
2024-12-19 09:37:04,-6631,-225616
2024-12-19 09:37:04,-4362,-225014
2024-12-19 09:37:04,-2115,-224207
2024-12-19 09:37:04,-1667,-223866
2024-12-19 09:37:04,-3083,-224275
2024-12-19 09:37:04,-5121,-225532
2024-12-19 09:37:04,-4734,-225810
2024-12-19 09:37:04,-4701,-225714
2024-12-19 09:37:04,-5997,-225970
2024-12-19 09:37:04,-4007,-225701
2024-12-19 09:37:04,-1584,-225125
2024-12-19 09:37:04,-653,-224463
2024-12-19 09:37:04,-909,-224441
2024-12-19 09:37:04,-3679,-225274
2024-12-19 09:37:04,-3907,-225717
2024-12-19 09:37:04,-4301,-225684
2024-12-19 09:37:04,-4065,-225774
2024-12-19 09:37:04,-4681,-226100
2024-12-19 09:37:04,-1882,-225560
2024-12-19 09:37:04,819,-224638
2024-12-19 09:37:04,1356,-223979
2024-12-19 09:37:04,-41,-224027
2024-12-19 09:37:04,-1908,-225056
2024-12-19 09:37:04,-1681,-225460
2024-12-19 09:37:04,-631,-225719
2024-12-19 09:37:04,-1389,-226183
2024-12-19 09:37:04,-931,-226291
2024-12-19 09:37:04,1331,-225564
2024-12-19 09:37:04,2288,-224838
2024-12-19 09:37:04,2601,-224637
2024-12-19 09:37:04,502,-225472
2024-12-19 09:37:04,-679,-226054
2024-12-19 09:37:04,-247,-226192
2024-12-19 09:37:04,-1355,-226399
2024-12-19 09:37:04,-2651,-227359
2024-12-19 09:37:04,334,-226179
2024-12-19 09:37:04,1463,-226017
2024-12-19 09:37:04,3501,-225434
2024-12-19 09:37:04,2944,-225496
2024-12-19 09:37:04,1181,-226612
2024-12-19 09:37:04,513,-227047
2024-12-19 09:37:04,-786,-226998
2024-12-19 09:37:04,-1759,-226957
2024-12-19 09:37:04,-2687,-227537
2024-12-19 09:37:04,-892,-226905
2024-12-19 09:37:04,923,-225858
2024-12-19 09:37:04,1603,-225819
2024-12-19 09:37:04,170,-226567
2024-12-19 09:37:04,-545,-227747
2024-12-19 09:37:04,-893,-227716
2024-12-19 09:37:04,-1214,-227782
2024-12-19 09:37:04,-2471,-228435
2024-12-19 09:37:04,2057,-227481
2024-12-19 09:37:04,3524,-226657
2024-12-19 09:37:04,3308,-226159
2024-12-19 09:37:04,1579,-226520
2024-12-19 09:37:04,350,-227182
2024-12-19 09:37:04,-971,-227779
2024-12-19 09:37:04,-287,-227813
2024-12-19 09:37:04,285,-227565
2024-12-19 09:37:04,-1530,-227910
2024-12-19 09:37:04,-428,-226763
2024-12-19 09:37:04,1849,-226074
2024-12-19 09:37:04,1686,-225906
2024-12-19 09:37:04,648,-226785
2024-12-19 09:37:04,-321,-227824
2024-12-19 09:37:04,249,-227969
2024-12-19 09:37:04,1573,-227911
2024-12-19 09:37:04,78,-228362
2024-12-19 09:37:04,2381,-227551
2024-12-19 09:37:04,4024,-226687
2024-12-19 09:37:04,4516,-226505
2024-12-19 09:37:04,4423,-226737
2024-12-19 09:37:04,2716,-227876
2024-12-19 09:37:04,2211,-228429
2024-12-19 09:37:04,2044,-228735
2024-12-19 09:37:04,579,-228732
2024-12-19 09:37:04,-30,-229103
2024-12-19 09:37:04,2751,-228112
2024-12-19 09:37:04,4227,-227373
2024-12-19 09:37:04,4076,-227157
2024-12-19 09:37:04,2760,-227551
2024-12-19 09:37:04,1429,-228419
2024-12-19 09:37:04,614,-228558
2024-12-19 09:37:04,633,-228629
2024-12-19 09:37:04,-1046,-229063
2024-12-19 09:37:04,213,-228895
2024-12-19 09:37:04,2509,-228008
2024-12-19 09:37:04,2805,-227646
2024-12-19 09:37:04,1902,-227953
2024-12-19 09:37:04,386,-229183
2024-12-19 09:37:04,89,-229517
2024-12-19 09:37:04,-1649,-229651
2024-12-19 09:37:04,-2353,-230056
2024-12-19 09:37:04,-2553,-230381
2024-12-19 09:37:04,-1152,-229615
2024-12-19 09:37:04,-1345,-228954
2024-12-19 09:37:04,-1469,-228966
2024-12-19 09:37:04,-2217,-229332
2024-12-19 09:37:04,-4219,-230529
2024-12-19 09:37:04,-3076,-230856
2024-12-19 09:37:04,-3371,-231074
2024-12-19 09:37:04,-6183,-231333
2024-12-19 09:37:04,-5119,-231066
2024-12-19 09:37:04,-2512,-230626
2024-12-19 09:37:04,-1281,-230227
2024-12-19 09:37:04,-2091,-230175
2024-12-19 09:37:04,-4537,-231478
2024-12-19 09:37:04,-5396,-232207
2024-12-19 09:37:04,-6969,-232376
2024-12-19 09:37:04,-8207,-232548
2024-12-19 09:37:04,-8881,-233109
2024-12-19 09:37:04,-6154,-232264
2024-12-19 09:37:04,-3531,-231366
2024-12-19 09:37:04,-2756,-231700
2024-12-19 09:37:04,-4312,-232426
2024-12-19 09:37:04,-6031,-233479
2024-12-19 09:37:04,-6656,-233504
2024-12-19 09:37:04,-7419,-233529
2024-12-19 09:37:04,-8750,-233669
2024-12-19 09:37:04,-7465,-233817
2024-12-19 09:37:04,-5976,-232831
2024-12-19 09:37:04,-4819,-232425
2024-12-19 09:37:04,-4679,-232622
2024-12-19 09:37:04,-6274,-233904
2024-12-19 09:37:04,-6732,-235139
2024-12-19 09:37:04,-6268,-235124
2024-12-19 09:37:04,-6268,-234926
2024-12-19 09:37:04,-7760,-235649
2024-12-19 09:37:04,-5509,-234978
2024-12-19 09:37:04,-2837,-234510
2024-12-19 09:37:04,-2089,-234528
2024-12-19 09:37:04,-3099,-235493
2024-12-19 09:37:04,-5196,-236888
2024-12-19 09:37:04,-4438,-237153
2024-12-19 09:37:04,-4809,-237566
2024-12-19 09:37:04,-7087,-237769
2024-12-19 09:37:04,-6673,-236947
2024-12-19 09:37:04,-6086,-236577
2024-12-19 09:37:04,-3447,-235754
2024-12-19 09:37:04,-1069,-235961
2024-12-19 09:37:04,-3665,-236996
2024-12-19 09:37:04,-7316,-238134
2024-12-19 09:37:04,-7316,-238661
2024-12-19 09:37:04,-8717,-238972
2024-12-19 09:37:04,-11111,-239832
2024-12-19 09:37:04,-8095,-239364
2024-12-19 09:37:04,-5593,-238852
2024-12-19 09:37:04,-5339,-238990
2024-12-19 09:37:04,-6915,-239328
2024-12-19 09:37:04,-9002,-240066
2024-12-19 09:37:05,-9230,-240327
2024-12-19 09:37:05,-8397,-240661
2024-12-19 09:37:05,-10606,-241110
2024-12-19 09:37:05,-9482,-240874
2024-12-19 09:37:05,-9827,-240216
2024-12-19 09:37:05,-8546,-239971
2024-12-19 09:37:05,-8759,-240697
2024-12-19 09:37:05,-9134,-241314
2024-12-19 09:37:05,-10724,-242477
2024-12-19 09:37:05,-13115,-242646
2024-12-19 09:37:05,-13444,-242611
2024-12-19 09:37:05,-14687,-242867
2024-12-19 09:37:05,-11133,-242812
2024-12-19 09:37:05,-8404,-242632
2024-12-19 09:37:05,-7706,-242019
2024-12-19 09:37:05,-8011,-242373
2024-12-19 09:37:05,-9108,-243736
2024-12-19 09:37:05,-8706,-243911
2024-12-19 09:37:05,-6674,-244144
2024-12-19 09:37:05,-5196,-244579
2024-12-19 09:37:05,-4177,-245906
2024-12-19 09:37:05,-3967,-245268
2024-12-19 09:37:05,-3277,-243504
2024-12-19 09:37:05,-2384,-243441
2024-12-19 09:37:05,-4002,-244776
2024-12-19 09:37:05,-2777,-245256
2024-12-19 09:37:05,-3948,-244438
2024-12-19 09:37:05,-4184,-244540
2024-12-19 09:37:05,-5021,-244860
2024-12-19 09:37:05,-3699,-244214
2024-12-19 09:37:05,-3171,-243423
2024-12-19 09:37:05,-3494,-243019
2024-12-19 09:37:05,-4874,-242949
2024-12-19 09:37:05,-7991,-243914
2024-12-19 09:37:05,-7257,-244852
2024-12-19 09:37:05,-6881,-245167
2024-12-19 09:37:05,-5436,-244638
2024-12-19 09:37:05,-8254,-244707
2024-12-19 09:37:05,-7186,-243638
2024-12-19 09:37:05,-6699,-242218
2024-12-19 09:37:05,-7456,-241946
2024-12-19 09:37:05,-8706,-242262
2024-12-19 09:37:05,-10450,-243087
2024-12-19 09:37:05,-12876,-243131
2024-12-19 09:37:05,-11656,-243258
2024-12-19 09:37:05,-12443,-243415
2024-12-19 09:37:05,-12282,-242564
2024-12-19 09:37:05,-13136,-241503
2024-12-19 09:37:05,-14049,-241052
2024-12-19 09:37:05,-15690,-240487
2024-12-19 09:37:05,-17038,-240757
2024-12-19 09:37:05,-17034,-240946
2024-12-19 09:37:05,-16387,-240719
2024-12-19 09:37:05,-14154,-240345
2024-12-19 09:37:05,-14979,-240734
2024-12-19 09:37:05,-14725,-239803
2024-12-19 09:37:05,-15501,-239048
2024-12-19 09:37:05,-16214,-238842
2024-12-19 09:37:05,-17808,-239000
2024-12-19 09:37:05,-18472,-239759
2024-12-19 09:37:05,-19567,-239202
2024-12-19 09:37:05,-19447,-238609
2024-12-19 09:37:05,-17870,-238846
2024-12-19 09:37:05,-16531,-238225
2024-12-19 09:37:05,-17162,-237526
2024-12-19 09:37:05,-18560,-236688
2024-12-19 09:37:05,-22569,-236364
2024-12-19 09:37:05,-23962,-236592
2024-12-19 09:37:05,-22470,-236774
2024-12-19 09:37:05,-23524,-237146
2024-12-19 09:37:05,-23964,-237193
2024-12-19 09:37:05,-25315,-237115
2024-12-19 09:37:05,-24108,-236061
2024-12-19 09:37:05,-24271,-235849
2024-12-19 09:37:05,-25613,-235681
2024-12-19 09:37:05,-25714,-235063
2024-12-19 09:37:05,-29240,-235754
2024-12-19 09:37:05,-31150,-236219
2024-12-19 09:37:05,-30665,-236079
2024-12-19 09:37:05,-29952,-236311
2024-12-19 09:37:05,-27739,-236244
2024-12-19 09:37:05,-24557,-235695
2024-12-19 09:37:05,-22594,-234961
2024-12-19 09:37:05,-23741,-234596
2024-12-19 09:37:05,-25396,-235017
2024-12-19 09:37:05,-24469,-235149
2024-12-19 09:37:05,-24346,-235214
2024-12-19 09:37:05,-21536,-235991
2024-12-19 09:37:05,-20719,-236436
2024-12-19 09:37:05,-21687,-236236
2024-12-19 09:37:05,-24400,-235649
2024-12-19 09:37:05,-25750,-235231
2024-12-19 09:37:05,-27300,-235329
2024-12-19 09:37:05,-30911,-236147
2024-12-19 09:37:05,-30258,-236303
2024-12-19 09:37:05,-31069,-236296
2024-12-19 09:37:05,-32529,-236096
2024-12-19 09:37:05,-30906,-236037
2024-12-19 09:37:05,-27699,-235788
2024-12-19 09:37:05,-27680,-235487
2024-12-19 09:37:05,-30444,-234777
2024-12-19 09:37:05,-37349,-233932
2024-12-19 09:37:05,-36410,-234272
2024-12-19 09:37:05,-33508,-234667
2024-12-19 09:37:05,-33935,-235657
2024-12-19 09:37:05,-35167,-236341
2024-12-19 09:37:05,-35132,-235495
2024-12-19 09:37:05,-35333,-234556
2024-12-19 09:37:05,-31849,-233975
2024-12-19 09:37:05,-31128,-234367
2024-12-19 09:37:05,-33004,-234944
2024-12-19 09:37:05,-34072,-234996
2024-12-19 09:37:05,-28843,-235001
2024-12-19 09:37:05,-25042,-235260
2024-12-19 09:37:05,-25723,-234626
2024-12-19 09:37:05,-25969,-234707
2024-12-19 09:37:05,-27262,-233779
2024-12-19 09:37:05,-28317,-233398
2024-12-19 09:37:05,-29792,-233882
2024-12-19 09:37:05,-28531,-234074
2024-12-19 09:37:05,-27822,-233711
2024-12-19 09:37:05,-25040,-233591
2024-12-19 09:37:05,-22801,-234326
2024-12-19 09:37:05,-20895,-233859
2024-12-19 09:37:05,-19945,-233246
2024-12-19 09:37:05,-21216,-233269
2024-12-19 09:37:05,-21712,-233711
2024-12-19 09:37:05,-22168,-235296
2024-12-19 09:37:05,-22964,-234746
2024-12-19 09:37:05,-23161,-234063
2024-12-19 09:37:05,-23739,-233838
2024-12-19 09:37:05,-22357,-233861
2024-12-19 09:37:05,-21029,-233511
2024-12-19 09:37:05,-18888,-233548
2024-12-19 09:37:05,-19599,-234076
2024-12-19 09:37:05,-22398,-234722
2024-12-19 09:37:05,-24301,-234559
2024-12-19 09:37:05,-23030,-234206
2024-12-19 09:37:05,-23380,-233667
2024-12-19 09:37:05,-23733,-233765
2024-12-19 09:37:05,-23159,-233012
2024-12-19 09:37:05,-20205,-232603
2024-12-19 09:37:05,-16732,-232290
2024-12-19 09:37:05,-20288,-232412
2024-12-19 09:37:05,-22939,-233217
2024-12-19 09:37:05,-23006,-232943
2024-12-19 09:37:05,-22106,-232958
2024-12-19 09:37:05,-18630,-233583
2024-12-19 09:37:05,-20078,-233317
2024-12-19 09:37:05,-21464,-232231
2024-12-19 09:37:05,-21903,-231526
2024-12-19 09:37:05,-21666,-231135
2024-12-19 09:37:05,-22760,-231778
2024-12-19 09:37:05,-21306,-232618
2024-12-19 09:37:05,-19046,-232611
2024-12-19 09:37:05,-20539,-232619
2024-12-19 09:37:05,-22437,-232597
2024-12-19 09:37:05,-21260,-231788
2024-12-19 09:37:05,-18567,-230899
2024-12-19 09:37:05,-18734,-230773
2024-12-19 09:37:05,-18672,-230944
2024-12-19 09:37:05,-21598,-232157
2024-12-19 09:37:05,-23196,-232337
2024-12-19 09:37:05,-22547,-232048
2024-12-19 09:37:05,-23166,-231976
2024-12-19 09:37:05,-24211,-232021
2024-12-19 09:37:05,-25888,-230921
2024-12-19 09:37:05,-25881,-229884
2024-12-19 09:37:05,-25909,-229884
2024-12-19 09:37:05,-27162,-230520
2024-12-19 09:37:05,-25672,-232341
2024-12-19 09:37:05,-24967,-233656
2024-12-19 09:37:05,-24392,-234397
2024-12-19 09:37:05,-26089,-234782
2024-12-19 09:37:05,-27802,-232768
2024-12-19 09:37:05,-29008,-231298
2024-12-19 09:37:05,-28987,-230229
2024-12-19 09:37:05,-27904,-230784
2024-12-19 09:37:05,-28260,-232284
2024-12-19 09:37:05,-29902,-233058
2024-12-19 09:37:05,-30381,-232199
2024-12-19 09:37:05,-29791,-230992
2024-12-19 09:37:05,-30507,-230662
2024-12-19 09:37:05,-29660,-230224
2024-12-19 09:37:05,-29726,-230369
2024-12-19 09:37:05,-29734,-230265
2024-12-19 09:37:05,-29249,-230681
2024-12-19 09:37:05,-30887,-231594
2024-12-19 09:37:05,-32209,-231419
2024-12-19 09:37:05,-33229,-231582
2024-12-19 09:37:05,-33041,-232476
2024-12-19 09:37:05,-32089,-232098
2024-12-19 09:37:05,-31402,-231172
2024-12-19 09:37:05,-30574,-230272
2024-12-19 09:37:05,-32044,-230429
2024-12-19 09:37:05,-33949,-231477
2024-12-19 09:37:05,-33547,-231959
2024-12-19 09:37:05,-33510,-232146
2024-12-19 09:37:05,-33120,-232376
2024-12-19 09:37:05,-33704,-232489
2024-12-19 09:37:05,-33187,-231914
2024-12-19 09:37:05,-33236,-231484
2024-12-19 09:37:05,-31407,-231392
2024-12-19 09:37:05,-31721,-232520
2024-12-19 09:37:05,-30378,-233268
2024-12-19 09:37:05,-30622,-233321
2024-12-19 09:37:05,-30241,-233261
2024-12-19 09:37:05,-30237,-233816
2024-12-19 09:37:05,-29891,-233439
2024-12-19 09:37:05,-30251,-232827
2024-12-19 09:37:05,-30682,-232542
2024-12-19 09:37:05,-30851,-232545
2024-12-19 09:37:05,-31757,-232784
2024-12-19 09:37:05,-31296,-233663
2024-12-19 09:37:05,-29972,-234354
2024-12-19 09:37:05,-29291,-234718
2024-12-19 09:37:05,-29301,-235117
2024-12-19 09:37:05,-28117,-234365
2024-12-19 09:37:05,-27887,-233569
2024-12-19 09:37:05,-27418,-233285
2024-12-19 09:37:05,-27444,-233384
2024-12-19 09:37:05,-27679,-234208
2024-12-19 09:37:05,-28289,-234581
2024-12-19 09:37:05,-29564,-234409
2024-12-19 09:37:05,-29780,-234877
2024-12-19 09:37:05,-28690,-234183
2024-12-19 09:37:05,-26589,-233501
2024-12-19 09:37:05,-26874,-233204
2024-12-19 09:37:05,-26557,-233477
2024-12-19 09:37:05,-26652,-234586
2024-12-19 09:37:05,-27012,-234963
2024-12-19 09:37:05,-27126,-235124
2024-12-19 09:37:05,-26896,-235169
2024-12-19 09:37:05,-28426,-235845
2024-12-19 09:37:05,-28137,-235444
2024-12-19 09:37:05,-27921,-234976
2024-12-19 09:37:05,-28562,-235025
2024-12-19 09:37:05,-29364,-235501
2024-12-19 09:37:05,-32050,-236806
2024-12-19 09:37:05,-32824,-236904
2024-12-19 09:37:05,-32372,-236712
2024-12-19 09:37:05,-31487,-237257
2024-12-19 09:37:05,-30331,-236767
2024-12-19 09:37:05,-31147,-236296
2024-12-19 09:37:05,-32097,-236411
2024-12-19 09:37:05,-32802,-236316
2024-12-19 09:37:05,-33521,-237351
2024-12-19 09:37:05,-32347,-238122
2024-12-19 09:37:05,-33492,-238361
2024-12-19 09:37:05,-34759,-238139
2024-12-19 09:37:05,-35706,-238457
2024-12-19 09:37:05,-35689,-237784
2024-12-19 09:37:05,-35487,-237268
2024-12-19 09:37:05,-35650,-236674
2024-12-19 09:37:05,-36317,-236991
2024-12-19 09:37:05,-38676,-237941
2024-12-19 09:37:05,-39234,-238217
2024-12-19 09:37:05,-39739,-238208
2024-12-19 09:37:05,-40913,-238085
2024-12-19 09:37:05,-40788,-237908
2024-12-19 09:37:05,-40544,-236906
2024-12-19 09:37:05,-41039,-235969
2024-12-19 09:37:05,-42496,-236107
2024-12-19 09:37:05,-45116,-236894
2024-12-19 09:37:05,-46844,-237250
2024-12-19 09:37:05,-46539,-236874
2024-12-19 09:37:05,-45417,-236759
2024-12-19 09:37:05,-46155,-237473
2024-12-19 09:37:05,-45296,-236419
2024-12-19 09:37:05,-43696,-235607
2024-12-19 09:37:05,-44744,-235421
2024-12-19 09:37:05,-46681,-235961
2024-12-19 09:37:05,-47187,-236881
2024-12-19 09:37:05,-46594,-236799
2024-12-19 09:37:05,-45961,-236901
2024-12-19 09:37:05,-46431,-236879
2024-12-19 09:37:05,-46367,-237273
2024-12-19 09:37:05,-46122,-236639
2024-12-19 09:37:05,-45831,-236178
2024-12-19 09:37:05,-45527,-236106
2024-12-19 09:37:05,-46426,-237088
2024-12-19 09:37:05,-45925,-238067
2024-12-19 09:37:05,-44709,-238257
2024-12-19 09:37:05,-42972,-238543
2024-12-19 09:37:05,-40561,-239359
2024-12-19 09:37:05,-39666,-238689
2024-12-19 09:37:05,-39137,-237947
2024-12-19 09:37:05,-38857,-237538
2024-12-19 09:37:05,-38237,-237779
2024-12-19 09:37:05,-37597,-238698
2024-12-19 09:37:05,-37454,-238788
2024-12-19 09:37:05,-37868,-239039
2024-12-19 09:37:05,-38796,-240011
2024-12-19 09:37:05,-38927,-240388
2024-12-19 09:37:05,-38505,-240136
2024-12-19 09:37:05,-38161,-239687
2024-12-19 09:37:05,-37992,-240634
2024-12-19 09:37:05,-40558,-242329
2024-12-19 09:37:05,-41970,-244159
2024-12-19 09:37:05,-41549,-245216
2024-12-19 09:37:05,-42381,-246042
2024-12-19 09:37:05,-43219,-247586
2024-12-19 09:37:05,-43959,-247017
2024-12-19 09:37:05,-42598,-246935
2024-12-19 09:37:05,-44401,-246738
2024-12-19 09:37:05,-46795,-247485
2024-12-19 09:37:05,-48307,-248441
2024-12-19 09:37:05,-47609,-248402
2024-12-19 09:37:05,-47022,-248486
2024-12-19 09:37:05,-45196,-248652
2024-12-19 09:37:05,-43876,-248560
2024-12-19 09:37:05,-41954,-247776
2024-12-19 09:37:05,-41378,-246994
2024-12-19 09:37:05,-41878,-246573
2024-12-19 09:37:05,-41767,-247059
2024-12-19 09:37:05,-43166,-248039
2024-12-19 09:37:05,-45151,-248117
2024-12-19 09:37:05,-45002,-247833
2024-12-19 09:37:05,-45466,-247792
2024-12-19 09:37:05,-44768,-247049
2024-12-19 09:37:05,-44919,-245814
2024-12-19 09:37:05,-43710,-244939
2024-12-19 09:37:05,-43439,-244852
2024-12-19 09:37:05,-43528,-245318
2024-12-19 09:37:05,-42346,-245569
2024-12-19 09:37:05,-41858,-245394
2024-12-19 09:37:05,-42487,-245129
2024-12-19 09:37:05,-40453,-245001
2024-12-19 09:37:05,-39994,-244017
2024-12-19 09:37:05,-41466,-242711
2024-12-19 09:37:05,-41841,-242682
2024-12-19 09:37:05,-43037,-243042
2024-12-19 09:37:05,-42964,-243362
2024-12-19 09:37:05,-43264,-242862
2024-12-19 09:37:05,-43437,-242649
2024-12-19 09:37:05,-44606,-242724
2024-12-19 09:37:05,-44734,-242230
2024-12-19 09:37:05,-44979,-241102
2024-12-19 09:37:05,-45682,-240082
2024-12-19 09:37:05,-46424,-239814
2024-12-19 09:37:05,-48322,-240466
2024-12-19 09:37:05,-48674,-240691
2024-12-19 09:37:05,-48726,-240729
2024-12-19 09:37:05,-49086,-240518
2024-12-19 09:37:05,-50666,-240679
2024-12-19 09:37:05,-50329,-239756
2024-12-19 09:37:05,-49542,-239200
2024-12-19 09:37:05,-49961,-239132
2024-12-19 09:37:05,-50772,-239596
2024-12-19 09:37:05,-51149,-240082
2024-12-19 09:37:05,-51268,-240065
2024-12-19 09:37:05,-50664,-239997
2024-12-19 09:37:05,-49536,-240352
2024-12-19 09:37:05,-46376,-239738
2024-12-19 09:37:05,-45352,-239368
2024-12-19 09:37:05,-42968,-238854
2024-12-19 09:37:05,-42197,-238833
2024-12-19 09:37:05,-43297,-239525
2024-12-19 09:37:05,-43757,-240178
2024-12-19 09:37:05,-43245,-240054
2024-12-19 09:37:05,-43357,-239769
2024-12-19 09:37:05,-42544,-239707
2024-12-19 09:37:05,-39278,-238469
2024-12-19 09:37:05,-38301,-237540
2024-12-19 09:37:05,-38712,-236977
2024-12-19 09:37:05,-38644,-237107
2024-12-19 09:37:05,-38707,-237673
2024-12-19 09:37:05,-36915,-237621
2024-12-19 09:37:05,-36011,-237104
2024-12-19 09:37:05,-35747,-237262
2024-12-19 09:37:05,-34425,-236354
2024-12-19 09:37:05,-33305,-235040
2024-12-19 09:37:05,-32616,-234254
2024-12-19 09:37:05,-31636,-233676
2024-12-19 09:37:05,-31621,-234589
2024-12-19 09:37:05,-31215,-235047
2024-12-19 09:37:05,-29809,-235089
2024-12-19 09:37:05,-29909,-235137
2024-12-19 09:37:05,-30159,-235466
2024-12-19 09:37:05,-27210,-234612
2024-12-19 09:37:05,-25054,-233438
2024-12-19 09:37:05,-24402,-233121
2024-12-19 09:37:05,-24871,-233488
2024-12-19 09:37:05,-26261,-234521
2024-12-19 09:37:05,-25395,-234716
2024-12-19 09:37:05,-24811,-234817
2024-12-19 09:37:05,-25089,-235238
2024-12-19 09:37:05,-22707,-234954
2024-12-19 09:37:05,-20679,-234204
2024-12-19 09:37:05,-19464,-233350
2024-12-19 09:37:05,-19145,-233519
2024-12-19 09:37:05,-19907,-234660
2024-12-19 09:37:05,-19415,-234934
2024-12-19 09:37:05,-19850,-234842
2024-12-19 09:37:05,-20227,-234605
2024-12-19 09:37:05,-20261,-234884
2024-12-19 09:37:05,-17620,-233876
2024-12-19 09:37:05,-16312,-233036
2024-12-19 09:37:05,-15274,-232817
2024-12-19 09:37:05,-13801,-232662
2024-12-19 09:37:05,-14251,-233551
2024-12-19 09:37:05,-12347,-233461
2024-12-19 09:37:05,-10782,-233221
2024-12-19 09:37:05,-9966,-233211
2024-12-19 09:37:05,-7754,-232977
2024-12-19 09:37:05,-5412,-232025
2024-12-19 09:37:05,-3913,-231024
2024-12-19 09:37:05,-6164,-230776
2024-12-19 09:37:05,-7217,-231236
2024-12-19 09:37:05,-5801,-231489
2024-12-19 09:37:05,-5344,-231324
2024-12-19 09:37:05,-5101,-231071
2024-12-19 09:37:05,-5042,-231112
2024-12-19 09:37:05,-3103,-230008
2024-12-19 09:37:05,-1409,-228941
2024-12-19 09:37:05,-1017,-228688
2024-12-19 09:37:05,-936,-228552
2024-12-19 09:37:05,-2170,-229177
2024-12-19 09:37:05,-2089,-229172
2024-12-19 09:37:05,-1166,-229046
2024-12-19 09:37:05,-1621,-228656
2024-12-19 09:37:05,-2059,-228943
2024-12-19 09:37:05,-1818,-227574
2024-12-19 09:37:05,-1067,-226319
2024-12-19 09:37:05,-2250,-226012
2024-12-19 09:37:05,-5026,-226384
2024-12-19 09:37:05,-5446,-226786
2024-12-19 09:37:05,-5215,-226572
2024-12-19 09:37:05,-5339,-226706
2024-12-19 09:37:05,-6867,-227000
2024-12-19 09:37:05,-5431,-226219
2024-12-19 09:37:05,-4572,-225531
2024-12-19 09:37:05,-5354,-225242
2024-12-19 09:37:05,-6966,-225687
2024-12-19 09:37:05,-9506,-226704
2024-12-19 09:37:05,-9459,-226797
2024-12-19 09:37:05,-9192,-227014
2024-12-19 09:37:05,-8580,-227052
2024-12-19 09:37:05,-8983,-227448
2024-12-19 09:37:05,-6714,-226552
2024-12-19 09:37:05,-6169,-225732
2024-12-19 09:37:05,-6661,-225502
2024-12-19 09:37:05,-8322,-226099
2024-12-19 09:37:05,-9079,-226924
2024-12-19 09:37:05,-9010,-226832
2024-12-19 09:37:05,-9673,-226492
2024-12-19 09:37:05,-11361,-226996
2024-12-19 09:37:05,-10137,-226124
2024-12-19 09:37:05,-10000,-225314
2024-12-19 09:37:05,-10516,-224750
2024-12-19 09:37:05,-12157,-224961
2024-12-19 09:37:05,-14649,-225712
2024-12-19 09:37:05,-14945,-225805
2024-12-19 09:37:05,-14747,-225904
2024-12-19 09:37:05,-15418,-225941
2024-12-19 09:37:05,-13846,-225156
2024-12-19 09:37:05,-12721,-224557
2024-12-19 09:37:05,-9833,-223586
2024-12-19 09:37:05,-8640,-223244
2024-12-19 09:37:05,-8895,-223919
2024-12-19 09:37:05,-9632,-224954
2024-12-19 09:37:05,-8754,-225094
2024-12-19 09:37:05,-8197,-225074
2024-12-19 09:37:05,-8754,-225333
2024-12-19 09:37:05,-5775,-224627
2024-12-19 09:37:05,-3894,-223886
2024-12-19 09:37:05,-3421,-223418
2024-12-19 09:37:05,-4578,-223443
2024-12-19 09:37:05,-6998,-224557
2024-12-19 09:37:05,-7924,-224510
2024-12-19 09:37:05,-8254,-224355
2024-12-19 09:37:05,-8682,-224430
2024-12-19 09:37:05,-6963,-224181
2024-12-19 09:37:05,-4667,-223446
2024-12-19 09:37:05,-2788,-222891
2024-12-19 09:37:05,-2489,-222887
2024-12-19 09:37:05,-5301,-223651
2024-12-19 09:37:05,-6650,-224011
2024-12-19 09:37:05,-5951,-224256
2024-12-19 09:37:05,-5687,-224196
2024-12-19 09:37:05,-5181,-224496
2024-12-19 09:37:05,-3342,-224307
2024-12-19 09:37:05,-1204,-223742
2024-12-19 09:37:05,303,-223357
2024-12-19 09:37:05,386,-223526
2024-12-19 09:37:05,-1594,-224263
2024-12-19 09:37:05,-2156,-224654
2024-12-19 09:37:05,-1757,-224446
2024-12-19 09:37:05,-1362,-224399
2024-12-19 09:37:05,-1387,-224507
2024-12-19 09:37:05,922,-223910
2024-12-19 09:37:05,1749,-223341
2024-12-19 09:37:05,2429,-223190
2024-12-19 09:37:05,1978,-223653
2024-12-19 09:37:05,1118,-224436
2024-12-19 09:37:05,1205,-224391
2024-12-19 09:37:05,1519,-224336
2024-12-19 09:37:05,1303,-224502
2024-12-19 09:37:05,2539,-224432
2024-12-19 09:37:05,4804,-223658
2024-12-19 09:37:05,6316,-223094
2024-12-19 09:37:05,5589,-222932
2024-12-19 09:37:05,3616,-223659
2024-12-19 09:37:05,2771,-224205
2024-12-19 09:37:05,2583,-224129
2024-12-19 09:37:05,2733,-224272
2024-12-19 09:37:05,1881,-224751
2024-12-19 09:37:05,4809,-223993
2024-12-19 09:37:05,7518,-223181
2024-12-19 09:37:05,7707,-222736
2024-12-19 09:37:05,5685,-223221
2024-12-19 09:37:05,3908,-224305
2024-12-19 09:37:06,3903,-224316
2024-12-19 09:37:06,4512,-224481
2024-12-19 09:37:06,2737,-224869
2024-12-19 09:37:06,5775,-224036
2024-12-19 09:37:06,7899,-223247
2024-12-19 09:37:06,8326,-222975
2024-12-19 09:37:06,8088,-222906
2024-12-19 09:37:06,6067,-223604
2024-12-19 09:37:06,4572,-224247
2024-12-19 09:37:06,4275,-224361
2024-12-19 09:37:06,4194,-224369
2024-12-19 09:37:06,2643,-224868
2024-12-19 09:37:06,5162,-223963
2024-12-19 09:37:06,6919,-223092
2024-12-19 09:37:06,7763,-223009
2024-12-19 09:37:06,6234,-223326
2024-12-19 09:37:06,4457,-224330
2024-12-19 09:37:06,4908,-224758
2024-12-19 09:37:06,4747,-224725
2024-12-19 09:37:06,3601,-225138
2024-12-19 09:37:06,6153,-224640
2024-12-19 09:37:06,7939,-223856
2024-12-19 09:37:06,8529,-223324
2024-12-19 09:37:06,8402,-223484
2024-12-19 09:37:06,6491,-224574
2024-12-19 09:37:06,6863,-224976
2024-12-19 09:37:06,7236,-225113
2024-12-19 09:37:06,7703,-225290
2024-12-19 09:37:06,6974,-225851
2024-12-19 09:37:06,10009,-225154
2024-12-19 09:37:06,12319,-224481
2024-12-19 09:37:06,13336,-224084
2024-12-19 09:37:06,11374,-224251
2024-12-19 09:37:06,9161,-225373
2024-12-19 09:37:06,9353,-225393
2024-12-19 09:37:06,9678,-225427
2024-12-19 09:37:06,8620,-225349
2024-12-19 09:37:06,10400,-225253
2024-12-19 09:37:06,13154,-224638
2024-12-19 09:37:06,14673,-224164
2024-12-19 09:37:06,13844,-224527
2024-12-19 09:37:06,11712,-225466
2024-12-19 09:37:06,10336,-225857
2024-12-19 09:37:06,11103,-225954
2024-12-19 09:37:06,11424,-226010
2024-12-19 09:37:06,11113,-226342
2024-12-19 09:37:06,12795,-225827
2024-12-19 09:37:06,15661,-225179
2024-12-19 09:37:06,17979,-224914
2024-12-19 09:37:06,16919,-225279
2024-12-19 09:37:06,13693,-226318
2024-12-19 09:37:06,13321,-226497
2024-12-19 09:37:06,13249,-226616
2024-12-19 09:37:06,12693,-226648
2024-12-19 09:37:06,13330,-226826
2024-12-19 09:37:06,16442,-226239
2024-12-19 09:37:06,18803,-225791
2024-12-19 09:37:06,18911,-225672
2024-12-19 09:37:06,16159,-226374
2024-12-19 09:37:06,15003,-227257
2024-12-19 09:37:06,15638,-227215
2024-12-19 09:37:06,15851,-227147
2024-12-19 09:37:06,14071,-227705
2024-12-19 09:37:06,16059,-226714
2024-12-19 09:37:06,18046,-225821
2024-12-19 09:37:06,18242,-225627
2024-12-19 09:37:06,16496,-225918
2024-12-19 09:37:06,14861,-226487
2024-12-19 09:37:06,14866,-227135
2024-12-19 09:37:06,16299,-227354
2024-12-19 09:37:06,15950,-227650
2024-12-19 09:37:06,15943,-228023
2024-12-19 09:37:06,18464,-227184
2024-12-19 09:37:06,19487,-226229
2024-12-19 09:37:06,19166,-226054
2024-12-19 09:37:06,17223,-226821
2024-12-19 09:37:06,15916,-227889
2024-12-19 09:37:06,15998,-227936
2024-12-19 09:37:06,15385,-228104
2024-12-19 09:37:06,14104,-228484
2024-12-19 09:37:06,17498,-227596
2024-12-19 09:37:06,19335,-226786
2024-12-19 09:37:06,19011,-226597
2024-12-19 09:37:06,16486,-226931
2024-12-19 09:37:06,13711,-228096
2024-12-19 09:37:06,13331,-228237
2024-12-19 09:37:06,13253,-228200
2024-12-19 09:37:06,13460,-228263
2024-12-19 09:37:06,13933,-228855
2024-12-19 09:37:06,17341,-228022
2024-12-19 09:37:06,19348,-227359
2024-12-19 09:37:06,18308,-227314
2024-12-19 09:37:06,15657,-227942
2024-12-19 09:37:06,13018,-228977
2024-12-19 09:37:06,12371,-229013
2024-12-19 09:37:06,12191,-228772
2024-12-19 09:37:06,10511,-229383
2024-12-19 09:37:06,12855,-228649
2024-12-19 09:37:06,14051,-228008
2024-12-19 09:37:06,14265,-227647
2024-12-19 09:37:06,13063,-228013
2024-12-19 09:37:06,10221,-229159
2024-12-19 09:37:06,10387,-229541
2024-12-19 09:37:06,9754,-229705
2024-12-19 09:37:06,8944,-229876
2024-12-19 09:37:06,8452,-230056
2024-12-19 09:37:06,8844,-229329
2024-12-19 09:37:06,9300,-228910
2024-12-19 09:37:06,9533,-228519
2024-12-19 09:37:06,7338,-228749
2024-12-19 09:37:06,5394,-229677
2024-12-19 09:37:06,5699,-229797
2024-12-19 09:37:06,4888,-229755
2024-12-19 09:37:06,2179,-230095
2024-12-19 09:37:06,3639,-229855
2024-12-19 09:37:06,4432,-229222
2024-12-19 09:37:06,5341,-228583
2024-12-19 09:37:06,3944,-228569
2024-12-19 09:37:06,1104,-229309
2024-12-19 09:37:06,1784,-229638
2024-12-19 09:37:06,2313,-229586
2024-12-19 09:37:06,2278,-229844
2024-12-19 09:37:06,1717,-230326
2024-12-19 09:37:06,1941,-229703
2024-12-19 09:37:06,1316,-229244
2024-12-19 09:37:06,848,-228907
2024-12-19 09:37:06,-601,-229465
2024-12-19 09:37:06,-2303,-230294
2024-12-19 09:37:06,-1959,-230316
2024-12-19 09:37:06,-525,-230294
2024-12-19 09:37:06,-315,-230567
2024-12-19 09:37:06,-121,-230639
2024-12-19 09:37:06,-207,-229703
2024-12-19 09:37:06,661,-228901
2024-12-19 09:37:06,-583,-229118
2024-12-19 09:37:06,-3235,-229945
2024-12-19 09:37:06,-3511,-230686
2024-12-19 09:37:06,-3351,-230710
2024-12-19 09:37:06,-3117,-230889
2024-12-19 09:37:06,-2936,-231166
2024-12-19 09:37:06,-1777,-230253
2024-12-19 09:37:06,498,-229296
2024-12-19 09:37:06,-357,-229204
2024-12-19 09:37:06,-3117,-229861
2024-12-19 09:37:06,-5134,-230656
2024-12-19 09:37:06,-3844,-231031
2024-12-19 09:37:06,-3997,-231357
2024-12-19 09:37:06,-6552,-232242
2024-12-19 09:37:06,-5387,-232132
2024-12-19 09:37:06,-4654,-231412
2024-12-19 09:37:06,-3674,-230788
2024-12-19 09:37:06,-2974,-230792
2024-12-19 09:37:06,-5904,-231399
2024-12-19 09:37:06,-7490,-232113
2024-12-19 09:37:06,-8346,-232174
2024-12-19 09:37:06,-9167,-232221
2024-12-19 09:37:06,-11049,-232642
2024-12-19 09:37:06,-8342,-231924
2024-12-19 09:37:06,-5913,-231331
2024-12-19 09:37:06,-3600,-231630
2024-12-19 09:37:06,-4134,-232274
2024-12-19 09:37:06,-6485,-233356
2024-12-19 09:37:06,-8119,-233489
2024-12-19 09:37:06,-9352,-233411
2024-12-19 09:37:06,-11634,-233502
2024-12-19 09:37:06,-9256,-232881
2024-12-19 09:37:06,-7956,-232187
2024-12-19 09:37:06,-8472,-232176
2024-12-19 09:37:06,-10876,-232541
2024-12-19 09:37:06,-12101,-232964
2024-12-19 09:37:06,-13422,-233827
2024-12-19 09:37:06,-13016,-233751
2024-12-19 09:37:06,-12704,-233809
2024-12-19 09:37:06,-14301,-234918
2024-12-19 09:37:06,-13283,-234166
2024-12-19 09:37:06,-12526,-233402
2024-12-19 09:37:06,-11985,-233084
2024-12-19 09:37:06,-12972,-232934
2024-12-19 09:37:06,-15142,-233681
2024-12-19 09:37:06,-14285,-233681
2024-12-19 09:37:06,-15304,-233719
2024-12-19 09:37:06,-17388,-234129
2024-12-19 09:37:06,-15092,-234176
2024-12-19 09:37:06,-14958,-234083
2024-12-19 09:37:06,-15108,-233663
2024-12-19 09:37:06,-15182,-233636
2024-12-19 09:37:06,-16719,-234445
2024-12-19 09:37:06,-17956,-234902
2024-12-19 09:37:06,-17754,-234971
2024-12-19 09:37:06,-17519,-234867
2024-12-19 09:37:06,-18889,-235359
2024-12-19 09:37:06,-17221,-235285
2024-12-19 09:37:06,-16465,-235033
2024-12-19 09:37:06,-16262,-234616
2024-12-19 09:37:06,-16982,-234393
2024-12-19 09:37:06,-18649,-235083
2024-12-19 09:37:06,-18657,-235527
2024-12-19 09:37:06,-18426,-235611
2024-12-19 09:37:06,-17600,-235864
2024-12-19 09:37:06,-17951,-236266
2024-12-19 09:37:06,-18574,-235924
2024-12-19 09:37:06,-19204,-236037
2024-12-19 09:37:06,-18804,-235492
2024-12-19 09:37:06,-19197,-235892
2024-12-19 09:37:06,-17062,-236445
2024-12-19 09:37:06,-13453,-236944
2024-12-19 09:37:06,-11165,-237404
2024-12-19 09:37:06,-13221,-237519
2024-12-19 09:37:06,-14267,-236651
2024-12-19 09:37:06,-13925,-236372
2024-12-19 09:37:06,-12642,-235633
2024-12-19 09:37:06,-12454,-235283
2024-12-19 09:37:06,-11921,-235551
2024-12-19 09:37:06,-8794,-236175
2024-12-19 09:37:06,-9760,-236512
2024-12-19 09:37:06,-9004,-237024
2024-12-19 09:37:06,-8273,-237734
2024-12-19 09:37:06,-7116,-236974
2024-12-19 09:37:06,-6933,-236091
2024-12-19 09:37:06,-5789,-236102
2024-12-19 09:37:06,-5701,-236449
2024-12-19 09:37:06,-6420,-237009
2024-12-19 09:37:06,-5856,-237058
2024-12-19 09:37:06,-5068,-237199
2024-12-19 09:37:06,-8921,-237406
2024-12-19 09:37:06,-10407,-236784
2024-12-19 09:37:06,-9172,-236100
2024-12-19 09:37:06,-7135,-235977
2024-12-19 09:37:06,-6315,-236569
2024-12-19 09:37:06,-6051,-237740
2024-12-19 09:37:06,-5076,-237951
2024-12-19 09:37:06,-3821,-238437
2024-12-19 09:37:06,-7811,-239329
2024-12-19 09:37:06,-9844,-239410
2024-12-19 09:37:06,-8626,-238406
2024-12-19 09:37:06,-9272,-238029
2024-12-19 09:37:06,-8961,-237753
2024-12-19 09:37:06,-9849,-237983
2024-12-19 09:37:06,-9934,-238777
2024-12-19 09:37:06,-8532,-238949
2024-12-19 09:37:06,-8499,-238998
2024-12-19 09:37:06,-8352,-239169
2024-12-19 09:37:06,-6835,-239077
2024-12-19 09:37:06,-4724,-238538
2024-12-19 09:37:06,-3659,-238181
2024-12-19 09:37:06,-5381,-238498
2024-12-19 09:37:06,-8057,-238892
2024-12-19 09:37:06,-8906,-239128
2024-12-19 09:37:06,-8636,-239523
2024-12-19 09:37:06,-7986,-239819
2024-12-19 09:37:06,-9109,-239818
2024-12-19 09:37:06,-7595,-239272
2024-12-19 09:37:06,-7301,-238504
2024-12-19 09:37:06,-9589,-237891
2024-12-19 09:37:06,-9659,-238204
2024-12-19 09:37:06,-7454,-238921
2024-12-19 09:37:06,-6306,-239087
2024-12-19 09:37:06,-7919,-239536
2024-12-19 09:37:06,-6479,-240425
2024-12-19 09:37:06,-7737,-240830
2024-12-19 09:37:06,-9837,-240101
2024-12-19 09:37:06,-10258,-241076
2024-12-19 09:37:06,-12312,-241551
2024-12-19 09:37:06,-15210,-240062
2024-12-19 09:37:06,-14517,-238361
2024-12-19 09:37:06,-13359,-239356
2024-12-19 09:37:06,-12251,-241018
2024-12-19 09:37:06,-12144,-240682
2024-12-19 09:37:06,-13513,-239177
2024-12-19 09:37:06,-15961,-238916
2024-12-19 09:37:06,-18246,-239274
2024-12-19 09:37:06,-19812,-239616
2024-12-19 09:37:06,-21356,-240154
2024-12-19 09:37:06,-19407,-240117
2024-12-19 09:37:06,-15719,-240289
2024-12-19 09:37:06,-16744,-240332
2024-12-19 09:37:06,-18280,-239786
2024-12-19 09:37:06,-18484,-239146
2024-12-19 09:37:06,-17782,-239062
2024-12-19 09:37:06,-16314,-239696
2024-12-19 09:37:06,-16294,-240206
2024-12-19 09:37:06,-16561,-240701
2024-12-19 09:37:06,-15829,-240854
2024-12-19 09:37:06,-16245,-240486
2024-12-19 09:37:06,-14693,-240754
2024-12-19 09:37:06,-12987,-240085
2024-12-19 09:37:06,-12903,-240043
2024-12-19 09:37:06,-12361,-239760
2024-12-19 09:37:06,-12642,-240371
2024-12-19 09:37:06,-14199,-241394
2024-12-19 09:37:06,-15545,-241233
2024-12-19 09:37:06,-15071,-241028
2024-12-19 09:37:06,-14009,-241028
2024-12-19 09:37:06,-14110,-240951
2024-12-19 09:37:06,-12171,-239921
2024-12-19 09:37:06,-10535,-239514
2024-12-19 09:37:06,-10021,-240109
2024-12-19 09:37:06,-8824,-240827
2024-12-19 09:37:06,-9586,-242364
2024-12-19 09:37:06,-10218,-242524
2024-12-19 09:37:06,-13683,-242169
2024-12-19 09:37:06,-15131,-242419
2024-12-19 09:37:06,-13612,-241494
2024-12-19 09:37:06,-10296,-240912
2024-12-19 09:37:06,-9097,-240922
2024-12-19 09:37:06,-10131,-241121
2024-12-19 09:37:06,-11178,-241692
2024-12-19 09:37:06,-11892,-241629
2024-12-19 09:37:06,-12865,-241929
2024-12-19 09:37:06,-14202,-242250
2024-12-19 09:37:06,-12213,-242085
2024-12-19 09:37:06,-11582,-241862
2024-12-19 09:37:06,-10932,-241321
2024-12-19 09:37:06,-9163,-241176
2024-12-19 09:37:06,-9188,-241650
2024-12-19 09:37:06,-9029,-242584
2024-12-19 09:37:06,-8496,-242539
2024-12-19 09:37:06,-10461,-242279
2024-12-19 09:37:06,-12287,-242341
2024-12-19 09:37:06,-10771,-241517
2024-12-19 09:37:06,-10018,-240936
2024-12-19 09:37:06,-8984,-240826
2024-12-19 09:37:06,-8792,-241302
2024-12-19 09:37:06,-10392,-242134
2024-12-19 09:37:06,-10087,-242486
2024-12-19 09:37:06,-10919,-242411
2024-12-19 09:37:06,-11764,-242473
2024-12-19 09:37:06,-11867,-242227
2024-12-19 09:37:06,-10189,-241734
2024-12-19 09:37:06,-8303,-241172
2024-12-19 09:37:06,-6147,-241118
2024-12-19 09:37:06,-6095,-242049
2024-12-19 09:37:06,-5274,-242440
2024-12-19 09:37:06,-3450,-242626
2024-12-19 09:37:06,-1846,-242435
2024-12-19 09:37:06,-239,-242778
2024-12-19 09:37:06,3363,-242235
2024-12-19 09:37:06,5113,-241206
2024-12-19 09:37:06,7760,-240879
2024-12-19 09:37:06,9560,-241389
2024-12-19 09:37:06,11529,-242137
2024-12-19 09:37:06,14867,-242293
2024-12-19 09:37:06,16613,-242403
2024-12-19 09:37:06,16773,-242452
2024-12-19 09:37:06,16498,-242024
2024-12-19 09:37:06,18656,-241397
2024-12-19 09:37:06,20307,-241187
2024-12-19 09:37:06,20225,-240999
2024-12-19 09:37:06,19789,-241584
2024-12-19 09:37:06,18905,-241688
2024-12-19 09:37:06,19231,-241499
2024-12-19 09:37:06,22190,-241617
2024-12-19 09:37:06,23173,-241764
2024-12-19 09:37:06,26040,-241327
2024-12-19 09:37:06,26340,-240202
2024-12-19 09:37:06,26286,-239404
2024-12-19 09:37:06,25702,-238982
2024-12-19 09:37:06,25253,-239462
2024-12-19 09:37:06,27396,-239589
2024-12-19 09:37:06,26006,-239814
2024-12-19 09:37:06,26263,-239459
2024-12-19 09:37:06,28111,-239806
2024-12-19 09:37:06,27820,-239073
2024-12-19 09:37:06,26821,-238289
2024-12-19 09:37:06,24542,-237779
2024-12-19 09:37:06,23529,-238130
2024-12-19 09:37:06,24986,-238377
2024-12-19 09:37:06,25841,-238142
2024-12-19 09:37:06,24154,-238127
2024-12-19 09:37:06,22439,-238281
2024-12-19 09:37:06,23014,-237361
2024-12-19 09:37:06,23459,-236873
2024-12-19 09:37:06,22428,-236560
2024-12-19 09:37:06,22138,-236597
2024-12-19 09:37:06,20739,-237344
2024-12-19 09:37:06,19461,-237635
2024-12-19 09:37:06,20553,-237466
2024-12-19 09:37:06,22196,-237455
2024-12-19 09:37:06,23555,-237896
2024-12-19 09:37:06,24083,-236952
2024-12-19 09:37:06,25077,-236572
2024-12-19 09:37:06,25399,-236602
2024-12-19 09:37:06,22888,-236841
2024-12-19 09:37:06,20996,-238152
2024-12-19 09:37:06,20633,-238229
2024-12-19 09:37:06,20183,-238406
2024-12-19 09:37:06,20015,-238631
2024-12-19 09:37:06,20323,-238024
2024-12-19 09:37:06,20912,-237522
2024-12-19 09:37:06,19183,-237221
2024-12-19 09:37:06,17520,-237602
2024-12-19 09:37:06,17167,-238392
2024-12-19 09:37:06,17341,-238767
2024-12-19 09:37:06,17403,-238726
2024-12-19 09:37:06,17721,-239074
2024-12-19 09:37:06,16506,-239564
2024-12-19 09:37:06,16134,-238864
2024-12-19 09:37:06,17033,-238080
2024-12-19 09:37:06,17468,-237775
2024-12-19 09:37:06,18433,-238026
2024-12-19 09:37:06,18398,-239054
2024-12-19 09:37:06,17611,-239292
2024-12-19 09:37:06,18611,-239308
2024-12-19 09:37:06,18718,-239742
2024-12-19 09:37:06,19058,-239341
2024-12-19 09:37:06,19342,-238606
2024-12-19 09:37:06,20486,-238327
2024-12-19 09:37:06,19547,-238729
2024-12-19 09:37:06,17706,-239312
2024-12-19 09:37:06,17485,-239972
2024-12-19 09:37:06,17164,-240099
2024-12-19 09:37:06,17358,-240052
2024-12-19 09:37:06,17476,-240241
2024-12-19 09:37:06,17880,-239868
2024-12-19 09:37:06,17797,-238973
2024-12-19 09:37:06,17037,-238621
2024-12-19 09:37:06,16183,-238717
2024-12-19 09:37:06,14900,-239590
2024-12-19 09:37:06,16046,-240091
2024-12-19 09:37:06,16364,-240129
2024-12-19 09:37:06,17060,-240501
2024-12-19 09:37:06,16864,-240113
2024-12-19 09:37:06,16904,-239306
2024-12-19 09:37:06,17149,-238688
2024-12-19 09:37:06,17076,-238748
2024-12-19 09:37:06,17346,-239718
2024-12-19 09:37:06,17112,-240270
2024-12-19 09:37:06,16804,-239909
2024-12-19 09:37:06,16451,-239967
2024-12-19 09:37:06,15699,-240309
2024-12-19 09:37:06,15341,-239624
2024-12-19 09:37:06,15336,-238745
2024-12-19 09:37:06,15333,-238594
2024-12-19 09:37:06,16108,-239111
2024-12-19 09:37:06,16247,-239595
2024-12-19 09:37:06,16705,-240006
2024-12-19 09:37:06,15338,-240049
2024-12-19 09:37:06,14943,-240157
2024-12-19 09:37:06,15566,-240056
2024-12-19 09:37:06,15816,-239314
2024-12-19 09:37:06,16446,-238939
2024-12-19 09:37:06,16746,-238882
2024-12-19 09:37:06,16275,-239540
2024-12-19 09:37:06,16702,-239979
2024-12-19 09:37:06,15856,-240086
2024-12-19 09:37:06,15811,-239872
2024-12-19 09:37:06,14619,-240288
2024-12-19 09:37:06,14853,-239546
2024-12-19 09:37:06,14907,-238660
2024-12-19 09:37:06,14481,-238606
2024-12-19 09:37:06,14055,-238880
2024-12-19 09:37:06,13988,-239671
2024-12-19 09:37:06,13441,-239601
2024-12-19 09:37:06,12403,-239451
2024-12-19 09:37:06,11999,-239494
2024-12-19 09:37:06,12208,-239716
2024-12-19 09:37:06,13479,-239108
2024-12-19 09:37:06,13646,-238326
2024-12-19 09:37:06,13966,-238266
2024-12-19 09:37:06,12399,-238741
2024-12-19 09:37:06,11560,-239327
2024-12-19 09:37:06,11475,-239200
2024-12-19 09:37:06,10890,-238987
2024-12-19 09:37:06,9350,-239272
2024-12-19 09:37:06,9470,-238307
2024-12-19 09:37:06,10576,-237710
2024-12-19 09:37:06,11320,-237341
2024-12-19 09:37:06,9887,-237366
2024-12-19 09:37:06,8668,-238064
2024-12-19 09:37:06,7687,-238071
2024-12-19 09:37:06,7586,-238216
2024-12-19 09:37:06,7063,-238215
2024-12-19 09:37:06,6895,-237739
2024-12-19 09:37:06,6804,-236991
2024-12-19 09:37:06,7149,-236829
2024-12-19 09:37:06,6907,-236611
2024-12-19 09:37:06,5681,-236998
2024-12-19 09:37:06,4706,-237895
2024-12-19 09:37:06,4122,-238124
2024-12-19 09:37:06,4301,-238202
2024-12-19 09:37:06,3355,-238736
2024-12-19 09:37:06,3202,-238278
2024-12-19 09:37:06,3326,-237789
2024-12-19 09:37:06,2941,-237419
2024-12-19 09:37:06,1727,-237932
2024-12-19 09:37:06,213,-239061
2024-12-19 09:37:06,-564,-239396
2024-12-19 09:37:06,-1506,-239609
2024-12-19 09:37:06,-1872,-239982
2024-12-19 09:37:06,-1819,-239878
2024-12-19 09:37:06,-2114,-239089
2024-12-19 09:37:06,-2278,-238809
2024-12-19 09:37:06,-1909,-239044
2024-12-19 09:37:06,-2364,-240126
2024-12-19 09:37:06,-1860,-240972
2024-12-19 09:37:06,-2665,-241054
2024-12-19 09:37:06,-2936,-241139
2024-12-19 09:37:06,-4773,-241602
2024-12-19 09:37:06,-4566,-241324
2024-12-19 09:37:06,-4809,-240761
2024-12-19 09:37:06,-5373,-240546
2024-12-19 09:37:06,-6601,-240836
2024-12-19 09:37:06,-8117,-241727
2024-12-19 09:37:06,-8619,-242149
2024-12-19 09:37:06,-8987,-242376
2024-12-19 09:37:06,-9811,-242374
2024-12-19 09:37:06,-9560,-242421
2024-12-19 09:37:06,-9914,-241702
2024-12-19 09:37:06,-10830,-241041
2024-12-19 09:37:06,-11538,-240728
2024-12-19 09:37:06,-11861,-241301
2024-12-19 09:37:06,-11871,-242159
2024-12-19 09:37:07,-11741,-242214
2024-12-19 09:37:07,-12482,-241879
2024-12-19 09:37:07,-13772,-242068
2024-12-19 09:37:07,-13490,-241624
2024-12-19 09:37:07,-13811,-240742
2024-12-19 09:37:07,-14076,-240019
2024-12-19 09:37:07,-14774,-239773
2024-12-19 09:37:07,-16559,-240269
2024-12-19 09:37:07,-16607,-240636
2024-12-19 09:37:07,-16479,-240600
2024-12-19 09:37:07,-16434,-240569
2024-12-19 09:37:07,-17282,-240906
2024-12-19 09:37:07,-17671,-239924
2024-12-19 09:37:07,-18141,-238989
2024-12-19 09:37:07,-16602,-238528
2024-12-19 09:37:07,-17956,-239046
2024-12-19 09:37:07,-19861,-239573
2024-12-19 09:37:07,-20606,-239396
2024-12-19 09:37:07,-20410,-239372
2024-12-19 09:37:07,-21590,-239772
2024-12-19 09:37:07,-21045,-238912
2024-12-19 09:37:07,-20946,-238144
2024-12-19 09:37:07,-21264,-237797
2024-12-19 09:37:07,-22334,-237791
2024-12-19 09:37:07,-22980,-238134
2024-12-19 09:37:07,-23360,-238662
2024-12-19 09:37:07,-23512,-238704
2024-12-19 09:37:07,-23726,-238638
2024-12-19 09:37:07,-24837,-239139
2024-12-19 09:37:07,-25055,-238164
2024-12-19 09:37:07,-24636,-237433
2024-12-19 09:37:07,-24044,-237359
2024-12-19 09:37:07,-25026,-237677
2024-12-19 09:37:07,-25572,-238419
2024-12-19 09:37:07,-25625,-238526
2024-12-19 09:37:07,-26047,-238693
2024-12-19 09:37:07,-27636,-239332
2024-12-19 09:37:07,-27131,-238346
2024-12-19 09:37:07,-26968,-237732
2024-12-19 09:37:07,-27902,-237109
2024-12-19 09:37:07,-29029,-236976
2024-12-19 09:37:07,-29807,-237784
2024-12-19 09:37:07,-30677,-237689
2024-12-19 09:37:07,-32247,-237777
2024-12-19 09:37:07,-32880,-237803
2024-12-19 09:37:07,-33828,-238469
2024-12-19 09:37:07,-32401,-237376
2024-12-19 09:37:07,-31909,-236232
2024-12-19 09:37:07,-32122,-235875
2024-12-19 09:37:07,-33342,-236449
2024-12-19 09:37:07,-35194,-236863
2024-12-19 09:37:07,-35031,-236993
2024-12-19 09:37:07,-34584,-237036
2024-12-19 09:37:07,-35474,-237285
2024-12-19 09:37:07,-33671,-237169
2024-12-19 09:37:07,-32891,-236481
2024-12-19 09:37:07,-33506,-235929
2024-12-19 09:37:07,-34622,-236066
2024-12-19 09:37:07,-36134,-236712
2024-12-19 09:37:07,-35944,-237119
2024-12-19 09:37:07,-36132,-237217
2024-12-19 09:37:07,-35752,-236984
2024-12-19 09:37:07,-34967,-237069
2024-12-19 09:37:07,-32555,-235344
2024-12-19 09:37:07,-30126,-234876
2024-12-19 09:37:07,-28734,-234675
2024-12-19 09:37:07,-26360,-235191
2024-12-19 09:37:07,-26072,-236143
2024-12-19 09:37:07,-24177,-236269
2024-12-19 09:37:07,-22633,-235838
2024-12-19 09:37:07,-21639,-235962
2024-12-19 09:37:07,-19523,-235924
2024-12-19 09:37:07,-18074,-235400
2024-12-19 09:37:07,-17584,-234766
2024-12-19 09:37:07,-18084,-234755
2024-12-19 09:37:07,-18445,-235707
2024-12-19 09:37:07,-16750,-236798
2024-12-19 09:37:07,-16401,-236734
2024-12-19 09:37:07,-15462,-236619
2024-12-19 09:37:07,-15788,-236412
2024-12-19 09:37:07,-14827,-235428
2024-12-19 09:37:07,-12986,-234764
2024-12-19 09:37:07,-12109,-234831
2024-12-19 09:37:07,-12801,-235081
2024-12-19 09:37:07,-12870,-235979
2024-12-19 09:37:07,-12392,-236112
2024-12-19 09:37:07,-12580,-235987
2024-12-19 09:37:07,-12799,-235962
2024-12-19 09:37:07,-11440,-236028
2024-12-19 09:37:07,-9884,-235285
2024-12-19 09:37:07,-8691,-234618
2024-12-19 09:37:07,-8347,-234516
2024-12-19 09:37:07,-7554,-235136
2024-12-19 09:37:07,-6736,-235652
2024-12-19 09:37:07,-6007,-235910
2024-12-19 09:37:07,-6311,-235854
2024-12-19 09:37:07,-7559,-235893
2024-12-19 09:37:07,-6041,-234654
2024-12-19 09:37:07,-4180,-233626
2024-12-19 09:37:07,-2577,-233542
2024-12-19 09:37:07,-3574,-233776
2024-12-19 09:37:07,-4716,-234798
2024-12-19 09:37:07,-5796,-234827
2024-12-19 09:37:07,-5367,-234947
2024-12-19 09:37:07,-6650,-235289
2024-12-19 09:37:07,-6742,-235269
2024-12-19 09:37:07,-5361,-234322
2024-12-19 09:37:07,-4393,-233696
2024-12-19 09:37:07,-3006,-233210
2024-12-19 09:37:07,-1245,-233862
2024-12-19 09:37:07,-1465,-234954
2024-12-19 09:37:07,-1151,-235257
2024-12-19 09:37:07,-115,-235398
2024-12-19 09:37:07,-97,-235681
2024-12-19 09:37:07,1442,-234871
2024-12-19 09:37:07,2378,-233907
2024-12-19 09:37:07,2166,-233781
2024-12-19 09:37:07,1212,-233741
2024-12-19 09:37:07,194,-234263
2024-12-19 09:37:07,88,-234244
2024-12-19 09:37:07,-3170,-233612
2024-12-19 09:37:07,-2209,-233694
2024-12-19 09:37:07,881,-233446
2024-12-19 09:37:07,4498,-232685
2024-12-19 09:37:07,7541,-232074
2024-12-19 09:37:07,8501,-231971
2024-12-19 09:37:07,8489,-232154
2024-12-19 09:37:07,8584,-232705
2024-12-19 09:37:07,10058,-232947
2024-12-19 09:37:07,10885,-232791
2024-12-19 09:37:07,10272,-232999
