Timestamp,GSR_Value,PPG_Value
2024-12-18 16:10:44,35110,1849
2024-12-18 16:10:44,35110,1848
2024-12-18 16:10:45,35111,1847
2024-12-18 16:10:45,35111,1848
2024-12-18 16:10:45,35110,1847
2024-12-18 16:10:45,35110,1848
2024-12-18 16:10:46,35110,1849
2024-12-18 16:10:46,35111,1850
2024-12-18 16:10:46,35110,1849
2024-12-18 16:10:47,35110,1852
2024-12-18 16:10:47,35110,1853
2024-12-18 16:10:47,35110,1855
2024-12-18 16:10:47,35110,1856
2024-12-18 16:10:47,35114,1860
2024-12-18 16:10:48,35111,1864
2024-12-18 16:10:48,35110,1866
2024-12-18 16:10:48,35110,1869
2024-12-18 16:10:48,35109,1871
2024-12-18 16:10:48,35108,1873
2024-12-18 16:10:49,35109,1876
2024-12-18 16:10:49,35109,1881
2024-12-18 16:10:49,35108,1884
2024-12-18 16:10:49,35108,1889
2024-12-18 16:10:50,35108,1893
2024-12-18 16:10:50,35109,1899
2024-12-18 16:10:51,35109,1902
2024-12-18 16:10:51,35108,1906
2024-12-18 16:10:51,35109,1909
2024-12-18 16:10:52,35109,1915
2024-12-18 16:10:52,35109,1918
2024-12-18 16:10:52,35108,1922
2024-12-18 16:10:52,35108,1926
2024-12-18 16:10:53,35109,1930
2024-12-18 16:10:53,35108,1932
2024-12-18 16:10:53,35108,1935
2024-12-18 16:10:54,35108,1940
2024-12-18 16:10:54,35108,1944
2024-12-18 16:10:54,35108,1948
2024-12-18 16:10:55,35108,1951
2024-12-18 16:10:55,35110,1957
2024-12-18 16:10:55,35109,1957
2024-12-18 16:10:55,35108,1959
2024-12-18 16:10:55,35107,1961
2024-12-18 16:10:56,35107,1964
2024-12-18 16:10:56,35106,1965
2024-12-18 16:10:56,35107,1967
2024-12-18 16:10:56,35106,1969
2024-12-18 16:10:56,35107,1971
2024-12-18 16:10:56,35106,1973
2024-12-18 16:10:56,35106,1974
2024-12-18 16:10:56,35106,1975
2024-12-18 16:10:56,35106,1976
2024-12-18 16:10:56,35106,1978
2024-12-18 16:10:56,35107,1979
2024-12-18 16:10:56,35107,1979
2024-12-18 16:10:56,35106,1979
2024-12-18 16:10:56,35106,1980
2024-12-18 16:10:56,35106,1980
2024-12-18 16:10:56,35106,1979
2024-12-18 16:10:56,35106,1980
2024-12-18 16:10:56,35106,1981
2024-12-18 16:10:56,35106,1980
2024-12-18 16:10:56,35106,1980
2024-12-18 16:10:56,35106,1980
2024-12-18 16:10:56,35106,1978
2024-12-18 16:10:56,35111,1982
2024-12-18 16:10:56,35108,1979
2024-12-18 16:10:56,35106,1979
2024-12-18 16:10:56,35105,1979
2024-12-18 16:10:56,35105,1979
2024-12-18 16:10:56,35104,1979
2024-12-18 16:10:56,35104,1978
2024-12-18 16:10:56,35105,1977
2024-12-18 16:10:56,35104,1976
2024-12-18 16:10:56,35104,1977
2024-12-18 16:10:56,35105,1978
2024-12-18 16:10:56,35104,1976
2024-12-18 16:10:56,35104,1976
2024-12-18 16:10:56,35104,1976
2024-12-18 16:10:56,35105,1976
2024-12-18 16:10:56,35105,1976
2024-12-18 16:10:56,35104,1975
2024-12-18 16:10:56,35104,1975
2024-12-18 16:10:56,35104,1974
2024-12-18 16:10:56,35104,1975
2024-12-18 16:10:56,35104,1974
2024-12-18 16:10:56,35103,1973
2024-12-18 16:10:56,35104,1972
2024-12-18 16:10:56,35104,1971
2024-12-18 16:10:56,35104,1970
2024-12-18 16:10:56,35104,1969
2024-12-18 16:10:56,35108,1971
2024-12-18 16:10:56,35105,1970
2024-12-18 16:10:56,35104,1968
2024-12-18 16:10:56,35103,1966
2024-12-18 16:10:56,35103,1963
2024-12-18 16:10:56,35102,1962
2024-12-18 16:10:56,35102,1958
2024-12-18 16:10:56,35102,1956
2024-12-18 16:10:56,35102,1954
2024-12-18 16:10:56,35102,1953
2024-12-18 16:10:56,35102,1951
2024-12-18 16:10:56,35102,1950
2024-12-18 16:10:56,35102,1948
2024-12-18 16:10:56,35102,1946
2024-12-18 16:10:56,35102,1945
2024-12-18 16:10:56,35102,1944
2024-12-18 16:10:56,35102,1943
2024-12-18 16:10:56,35102,1942
2024-12-18 16:10:56,35102,1942
2024-12-18 16:10:56,35102,1940
2024-12-18 16:10:56,35101,1939
2024-12-18 16:10:56,35101,1939
2024-12-18 16:10:56,35102,1937
2024-12-18 16:10:56,35101,1938
2024-12-18 16:10:57,35101,1935
2024-12-18 16:10:57,35101,1935
2024-12-18 16:10:57,35106,1934
2024-12-18 16:10:57,35103,1932
2024-12-18 16:10:57,35101,1929
2024-12-18 16:10:57,35100,1928
2024-12-18 16:10:57,35101,1926
2024-12-18 16:10:57,35100,1923
2024-12-18 16:10:57,35100,1921
2024-12-18 16:10:57,35099,1919
2024-12-18 16:10:57,35100,1916
2024-12-18 16:10:57,35100,1914
2024-12-18 16:10:57,35100,1912
2024-12-18 16:10:57,35100,1908
2024-12-18 16:10:57,35100,1907
2024-12-18 16:10:57,35100,1905
2024-12-18 16:10:57,35100,1902
2024-12-18 16:10:57,35100,1899
2024-12-18 16:10:57,35099,1898
2024-12-18 16:10:57,35100,1896
2024-12-18 16:10:57,35100,1895
2024-12-18 16:10:57,35100,1894
2024-12-18 16:10:57,35099,1893
2024-12-18 16:10:57,35100,1894
2024-12-18 16:10:57,35100,1894
2024-12-18 16:10:57,35100,1894
2024-12-18 16:10:57,35099,1892
2024-12-18 16:10:57,35099,1893
2024-12-18 16:10:57,35106,1893
2024-12-18 16:10:57,35101,1894
2024-12-18 16:10:57,35099,1893
2024-12-18 16:10:57,35099,1894
2024-12-18 16:10:57,35099,1894
2024-12-18 16:10:57,35098,1894
2024-12-18 16:10:57,35098,1895
2024-12-18 16:10:57,35098,1896
2024-12-18 16:10:57,35098,1896
2024-12-18 16:10:57,35098,1895
2024-12-18 16:10:57,35098,1895
2024-12-18 16:10:57,35098,1894
2024-12-18 16:10:57,35098,1895
2024-12-18 16:10:57,35098,1895
2024-12-18 16:10:57,35098,1896
2024-12-18 16:10:57,35098,1895
2024-12-18 16:10:57,35097,1896
2024-12-18 16:10:57,35098,1895
2024-12-18 16:10:57,35098,1897
2024-12-18 16:10:57,35097,1897
2024-12-18 16:10:57,35098,1897
2024-12-18 16:10:57,35098,1897
2024-12-18 16:10:57,35097,1897
2024-12-18 16:10:57,35098,1896
2024-12-18 16:10:57,35097,1896
2024-12-18 16:10:57,35097,1896
2024-12-18 16:10:57,35100,1898
2024-12-18 16:10:57,35099,1898
2024-12-18 16:10:57,35097,1896
2024-12-18 16:10:57,35097,1896
2024-12-18 16:10:57,35098,1895
2024-12-18 16:10:57,35096,1895
2024-12-18 16:10:57,35096,1894
2024-12-18 16:10:57,35095,1894
2024-12-18 16:10:57,35096,1894
2024-12-18 16:10:57,35096,1895
2024-12-18 16:10:57,35096,1895
2024-12-18 16:10:57,35096,1894
2024-12-18 16:10:57,35096,1896
2024-12-18 16:10:57,35096,1898
2024-12-18 16:10:57,35096,1900
2024-12-18 16:10:57,35096,1901
2024-12-18 16:10:57,35096,1904
2024-12-18 16:10:57,35096,1906
2024-12-18 16:10:57,35096,1906
2024-12-18 16:10:57,35096,1910
2024-12-18 16:10:57,35096,1910
2024-12-18 16:10:57,35096,1912
2024-12-18 16:10:57,35096,1912
2024-12-18 16:10:57,35096,1914
2024-12-18 16:10:57,35095,1914
2024-12-18 16:10:57,35096,1915
2024-12-18 16:10:57,35099,1917
2024-12-18 16:10:57,35096,1918
2024-12-18 16:10:57,35095,1917
2024-12-18 16:10:57,35095,1916
2024-12-18 16:10:57,35096,1916
2024-12-18 16:10:57,35094,1914
2024-12-18 16:10:57,35094,1914
2024-12-18 16:10:57,35094,1912
2024-12-18 16:10:57,35094,1912
2024-12-18 16:10:57,35094,1911
2024-12-18 16:10:57,35094,1911
2024-12-18 16:10:57,35094,1909
2024-12-18 16:10:57,35094,1910
2024-12-18 16:10:57,35094,1908
2024-12-18 16:10:57,35094,1908
2024-12-18 16:10:57,35094,1908
2024-12-18 16:10:57,35094,1908
2024-12-18 16:10:57,35094,1909
2024-12-18 16:10:57,35093,1907
2024-12-18 16:10:57,35093,1909
2024-12-18 16:10:57,35094,1908
2024-12-18 16:10:57,35094,1909
2024-12-18 16:10:57,35094,1908
2024-12-18 16:10:57,35093,1908
2024-12-18 16:10:57,35094,1907
2024-12-18 16:10:57,35094,1906
2024-12-18 16:10:57,35095,1906
2024-12-18 16:10:57,35095,1905
2024-12-18 16:10:57,35093,1904
2024-12-18 16:10:57,35094,1900
2024-12-18 16:10:57,35093,1900
2024-12-18 16:10:57,35092,1898
2024-12-18 16:10:57,35092,1897
2024-12-18 16:10:57,35092,1895
2024-12-18 16:10:57,35092,1895
2024-12-18 16:10:57,35091,1894
2024-12-18 16:10:57,35091,1893
2024-12-18 16:10:57,35092,1894
2024-12-18 16:10:57,35092,1892
2024-12-18 16:10:57,35092,1891
2024-12-18 16:10:57,35092,1891
2024-12-18 16:10:57,35091,1891
2024-12-18 16:10:57,35092,1891
2024-12-18 16:10:57,35092,1891
2024-12-18 16:10:57,35091,1891
2024-12-18 16:10:57,35092,1891
2024-12-18 16:10:57,35092,1892
2024-12-18 16:10:57,35092,1891
2024-12-18 16:10:57,35092,1891
2024-12-18 16:10:57,35091,1890
2024-12-18 16:10:57,35092,1891
2024-12-18 16:10:57,35092,1891
2024-12-18 16:10:57,35094,1894
2024-12-18 16:10:57,35093,1895
2024-12-18 16:10:57,35091,1896
2024-12-18 16:10:57,35091,1897
2024-12-18 16:10:57,35091,1899
2024-12-18 16:10:57,35090,1899
2024-12-18 16:10:57,35089,1902
2024-12-18 16:10:57,35090,1904
2024-12-18 16:10:57,35090,1905
2024-12-18 16:10:57,35089,1907
2024-12-18 16:10:57,35089,1909
2024-12-18 16:10:57,35090,1911
2024-12-18 16:10:57,35090,1911
2024-12-18 16:10:57,35090,1913
2024-12-18 16:10:57,35090,1913
2024-12-18 16:10:57,35090,1914
2024-12-18 16:10:57,35090,1913
2024-12-18 16:10:57,35090,1914
2024-12-18 16:10:57,35090,1913
2024-12-18 16:10:57,35090,1914
2024-12-18 16:10:57,35090,1913
2024-12-18 16:10:57,35090,1913
2024-12-18 16:10:57,35089,1912
2024-12-18 16:10:57,35089,1912
2024-12-18 16:10:57,35089,1912
2024-12-18 16:10:57,35090,1912
2024-12-18 16:10:57,35089,1910
2024-12-18 16:10:57,35089,1911
2024-12-18 16:10:57,35090,1910
2024-12-18 16:10:57,35089,1908
2024-12-18 16:10:57,35089,1908
2024-12-18 16:10:57,35089,1905
2024-12-18 16:10:57,35089,1906
2024-12-18 16:10:57,35089,1906
2024-12-18 16:10:57,35089,1904
2024-12-18 16:10:57,35089,1902
2024-12-18 16:10:57,35088,1902
2024-12-18 16:10:57,35089,1901
2024-12-18 16:10:57,35089,1900
2024-12-18 16:10:57,35088,1897
2024-12-18 16:10:57,35088,1895
2024-12-18 16:10:57,35088,1894
2024-12-18 16:10:57,35088,1893
2024-12-18 16:10:57,35087,1891
2024-12-18 16:10:57,35088,1889
2024-12-18 16:10:57,35088,1888
2024-12-18 16:10:57,35088,1886
2024-12-18 16:10:57,35088,1886
2024-12-18 16:10:57,35088,1884
2024-12-18 16:10:57,35088,1884
2024-12-18 16:10:57,35088,1883
2024-12-18 16:10:57,35087,1881
2024-12-18 16:10:57,35089,1881
2024-12-18 16:10:57,35089,1881
2024-12-18 16:10:57,35087,1880
2024-12-18 16:10:57,35088,1879
2024-12-18 16:10:57,35087,1879
2024-12-18 16:10:57,35086,1878
2024-12-18 16:10:57,35086,1878
2024-12-18 16:10:57,35086,1878
2024-12-18 16:10:57,35085,1878
2024-12-18 16:10:57,35086,1877
2024-12-18 16:10:57,35086,1878
2024-12-18 16:10:57,35086,1879
2024-12-18 16:10:57,35086,1879
2024-12-18 16:10:57,35086,1879
2024-12-18 16:10:57,35086,1879
2024-12-18 16:10:57,35086,1879
2024-12-18 16:10:57,35086,1879
2024-12-18 16:10:57,35086,1878
2024-12-18 16:10:57,35086,1878
2024-12-18 16:10:57,35086,1879
2024-12-18 16:10:57,35086,1877
2024-12-18 16:10:57,35086,1877
2024-12-18 16:10:57,35086,1877
2024-12-18 16:10:57,35086,1876
2024-12-18 16:10:57,35086,1876
2024-12-18 16:10:57,35085,1876
2024-12-18 16:10:57,35088,1876
2024-12-18 16:10:57,35087,1878
2024-12-18 16:10:57,35086,1874
2024-12-18 16:10:57,35086,1872
2024-12-18 16:10:57,35085,1873
2024-12-18 16:10:57,35084,1872
2024-12-18 16:10:57,35084,1871
2024-12-18 16:10:57,35084,1871
2024-12-18 16:10:57,35084,1869
2024-12-18 16:10:57,35084,1868
2024-12-18 16:10:57,35084,1868
2024-12-18 16:10:58,35084,1868
2024-12-18 16:10:58,35084,1868
2024-12-18 16:10:58,35084,1869
2024-12-18 16:10:58,35084,1870
2024-12-18 16:10:58,35084,1870
2024-12-18 16:10:58,35084,1870
2024-12-18 16:10:58,35084,1870
2024-12-18 16:10:58,35084,1871
2024-12-18 16:10:58,35084,1872
2024-12-18 16:10:58,35084,1872
2024-12-18 16:10:58,35084,1873
2024-12-18 16:10:58,35084,1872
2024-12-18 16:10:58,35084,1872
2024-12-18 16:10:58,35084,1870
2024-12-18 16:10:58,35083,1870
2024-12-18 16:10:58,35087,1871
2024-12-18 16:10:58,35085,1873
2024-12-18 16:10:58,35084,1869
2024-12-18 16:10:58,35084,1869
2024-12-18 16:10:58,35083,1869
2024-12-18 16:10:58,35083,1866
2024-12-18 16:10:58,35083,1866
2024-12-18 16:10:58,35082,1866
2024-12-18 16:10:58,35082,1866
2024-12-18 16:10:58,35082,1865
2024-12-18 16:10:58,35083,1865
2024-12-18 16:10:58,35083,1864
2024-12-18 16:10:58,35082,1865
2024-12-18 16:10:58,35082,1865
2024-12-18 16:10:58,35083,1866
2024-12-18 16:10:58,35083,1866
2024-12-18 16:10:58,35082,1866
2024-12-18 16:10:58,35082,1867
2024-12-18 16:10:58,35082,1866
2024-12-18 16:10:58,35083,1869
2024-12-18 16:10:58,35082,1870
2024-12-18 16:10:58,35082,1871
2024-12-18 16:10:58,35082,1871
2024-12-18 16:10:58,35082,1872
2024-12-18 16:10:58,35082,1874
2024-12-18 16:10:58,35082,1875
2024-12-18 16:10:58,35086,1877
2024-12-18 16:10:58,35084,1879
2024-12-18 16:10:58,35083,1879
2024-12-18 16:10:58,35082,1879
2024-12-18 16:10:58,35081,1880
2024-12-18 16:10:58,35081,1880
2024-12-18 16:10:58,35081,1880
2024-12-18 16:10:58,35080,1879
2024-12-18 16:10:58,35080,1880
2024-12-18 16:10:58,35080,1879
2024-12-18 16:10:58,35081,1880
2024-12-18 16:10:58,35080,1879
2024-12-18 16:10:58,35080,1878
2024-12-18 16:10:58,35080,1877
2024-12-18 16:10:58,35081,1877
2024-12-18 16:10:58,35080,1875
2024-12-18 16:10:58,35080,1873
2024-12-18 16:10:58,35081,1873
2024-12-18 16:10:58,35081,1871
2024-12-18 16:10:58,35081,1871
2024-12-18 16:10:58,35080,1871
2024-12-18 16:10:58,35080,1872
2024-12-18 16:10:58,35081,1871
2024-12-18 16:10:58,35081,1872
2024-12-18 16:10:58,35080,1871
2024-12-18 16:10:58,35080,1871
2024-12-18 16:10:58,35084,1872
2024-12-18 16:10:58,35082,1873
2024-12-18 16:10:58,35080,1872
2024-12-18 16:10:58,35080,1871
2024-12-18 16:10:58,35080,1873
2024-12-18 16:10:58,35079,1872
2024-12-18 16:10:58,35078,1872
2024-12-18 16:10:58,35078,1873
2024-12-18 16:10:58,35078,1874
2024-12-18 16:10:58,35079,1874
2024-12-18 16:10:58,35079,1874
2024-12-18 16:10:58,35079,1873
2024-12-18 16:10:58,35078,1873
2024-12-18 16:10:58,35079,1874
2024-12-18 16:10:58,35079,1873
2024-12-18 16:10:58,35078,1873
2024-12-18 16:10:58,35078,1874
2024-12-18 16:10:58,35079,1875
2024-12-18 16:10:58,35079,1876
2024-12-18 16:10:58,35079,1877
2024-12-18 16:10:58,35078,1878
2024-12-18 16:10:58,35079,1880
2024-12-18 16:10:58,35079,1880
2024-12-18 16:10:58,35079,1879
2024-12-18 16:10:58,35078,1880
2024-12-18 16:10:58,35078,1880
2024-12-18 16:10:58,35082,1883
2024-12-18 16:10:58,35079,1883
2024-12-18 16:10:58,35078,1884
2024-12-18 16:10:58,35078,1886
2024-12-18 16:10:58,35078,1888
2024-12-18 16:10:58,35077,1888
2024-12-18 16:10:58,35076,1889
2024-12-18 16:10:58,35076,1891
2024-12-18 16:10:58,35077,1894
2024-12-18 16:10:58,35077,1896
2024-12-18 16:10:58,35078,1897
2024-12-18 16:10:58,35077,1901
2024-12-18 16:10:58,35077,1902
2024-12-18 16:10:58,35077,1905
2024-12-18 16:10:58,35077,1907
2024-12-18 16:10:58,35077,1911
2024-12-18 16:10:58,35077,1914
2024-12-18 16:10:58,35077,1918
2024-12-18 16:10:58,35077,1921
2024-12-18 16:10:58,35076,1923
2024-12-18 16:10:58,35076,1927
2024-12-18 16:10:58,35077,1929
2024-12-18 16:10:58,35077,1931
2024-12-18 16:10:58,35076,1931
2024-12-18 16:10:58,35076,1934
2024-12-18 16:10:58,35076,1935
2024-12-18 16:10:58,35077,1942
2024-12-18 16:10:58,35079,1939
2024-12-18 16:10:58,35076,1939
2024-12-18 16:10:58,35076,1939
2024-12-18 16:10:58,35076,1941
2024-12-18 16:10:58,35075,1940
2024-12-18 16:10:58,35074,1940
2024-12-18 16:10:58,35075,1939
2024-12-18 16:10:58,35075,1939
2024-12-18 16:10:58,35075,1940
2024-12-18 16:10:58,35075,1939
2024-12-18 16:10:58,35075,1939
2024-12-18 16:10:59,35075,1938
2024-12-18 16:10:59,35075,1939
2024-12-18 16:10:59,35074,1938
2024-12-18 16:11:00,35074,1938
2024-12-18 16:11:00,35075,1938
2024-12-18 16:11:00,35075,1939
2024-12-18 16:11:01,35075,1937
2024-12-18 16:11:01,35074,1937
2024-12-18 16:11:01,35075,1937
2024-12-18 16:11:02,35075,1937
2024-12-18 16:11:02,35075,1936
2024-12-18 16:11:02,35074,1935
2024-12-18 16:11:02,35074,1934
2024-12-18 16:11:02,35075,1933
2024-12-18 16:11:03,35076,1937
2024-12-18 16:11:03,35080,1934
2024-12-18 16:11:03,35074,1934
2024-12-18 16:11:03,35074,1935
2024-12-18 16:11:04,35074,1935
2024-12-18 16:11:04,35072,1934
2024-12-18 16:11:04,35073,1934
2024-12-18 16:11:05,35073,1933
2024-12-18 16:11:05,35073,1932
2024-12-18 16:11:05,35073,1934
2024-12-18 16:11:06,35073,1933
2024-12-18 16:11:06,35073,1934
2024-12-18 16:11:06,35073,1932
2024-12-18 16:11:06,35073,1934
2024-12-18 16:11:06,35073,1934
2024-12-18 16:11:06,35073,1933
2024-12-18 16:11:07,35073,1934
2024-12-18 16:11:07,35073,1932
2024-12-18 16:11:07,35073,1933
2024-12-18 16:11:08,35073,1933
2024-12-18 16:11:08,35073,1934
2024-12-18 16:11:08,35073,1934
2024-12-18 16:11:08,35073,1935
2024-12-18 16:11:09,35072,1935
2024-12-18 16:11:09,35073,1937
2024-12-18 16:11:09,35073,1936
2024-12-18 16:11:09,35075,1941
2024-12-18 16:11:10,35073,1939
2024-12-18 16:11:10,35073,1936
2024-12-18 16:11:10,35073,1936
2024-12-18 16:11:10,35072,1934
2024-12-18 16:11:10,35071,1933
2024-12-18 16:11:10,35071,1932
2024-12-18 16:11:10,35071,1933
2024-12-18 16:11:10,35071,1931
2024-12-18 16:11:10,35071,1931
2024-12-18 16:11:10,35071,1928
2024-12-18 16:11:10,35071,1926
2024-12-18 16:11:10,35071,1925
2024-12-18 16:11:10,35071,1922
2024-12-18 16:11:10,35071,1920
2024-12-18 16:11:10,35072,1918
2024-12-18 16:11:10,35072,1916
2024-12-18 16:11:10,35072,1914
2024-12-18 16:11:10,35071,1913
2024-12-18 16:11:10,35072,1912
2024-12-18 16:11:10,35072,1910
2024-12-18 16:11:10,35072,1908
2024-12-18 16:11:10,35071,1907
2024-12-18 16:11:10,35071,1906
2024-12-18 16:11:10,35072,1904
2024-12-18 16:11:10,35072,1904
2024-12-18 16:11:10,35074,1907
2024-12-18 16:11:10,35076,1903
2024-12-18 16:11:10,35072,1902
2024-12-18 16:11:10,35072,1901
2024-12-18 16:11:10,35071,1900
2024-12-18 16:11:10,35070,1899
2024-12-18 16:11:10,35071,1898
2024-12-18 16:11:10,35071,1897
2024-12-18 16:11:10,35071,1896
2024-12-18 16:11:10,35071,1895
2024-12-18 16:11:10,35070,1893
2024-12-18 16:11:10,35071,1892
2024-12-18 16:11:10,35071,1892
2024-12-18 16:11:10,35070,1891
2024-12-18 16:11:10,35070,1893
2024-12-18 16:11:10,35071,1893
2024-12-18 16:11:10,35071,1895
2024-12-18 16:11:10,35071,1896
2024-12-18 16:11:10,35070,1899
2024-12-18 16:11:10,35071,1901
2024-12-18 16:11:10,35071,1903
2024-12-18 16:11:10,35071,1905
2024-12-18 16:11:10,35070,1907
2024-12-18 16:11:10,35070,1909
2024-12-18 16:11:10,35071,1911
2024-12-18 16:11:10,35070,1913
2024-12-18 16:11:10,35072,1914
2024-12-18 16:11:10,35075,1916
2024-12-18 16:11:10,35071,1916
2024-12-18 16:11:10,35071,1918
2024-12-18 16:11:10,35069,1918
2024-12-18 16:11:10,35069,1918
2024-12-18 16:11:10,35069,1920
2024-12-18 16:11:10,35069,1920
2024-12-18 16:11:10,35069,1919
2024-12-18 16:11:10,35069,1918
2024-12-18 16:11:10,35069,1918
2024-12-18 16:11:10,35070,1917
2024-12-18 16:11:10,35069,1916
2024-12-18 16:11:10,35069,1915
2024-12-18 16:11:10,35069,1914
2024-12-18 16:11:10,35070,1913
2024-12-18 16:11:11,35070,1912
2024-12-18 16:11:11,35069,1911
2024-12-18 16:11:11,35069,1910
2024-12-18 16:11:12,35069,1908
2024-12-18 16:11:12,35069,1906
2024-12-18 16:11:12,35069,1904
2024-12-18 16:11:13,35069,1900
2024-12-18 16:11:13,35069,1899
2024-12-18 16:11:13,35069,1897
2024-12-18 16:11:14,35069,1896
2024-12-18 16:11:14,35070,1898
2024-12-18 16:11:14,35070,1895
2024-12-18 16:11:14,35069,1892
2024-12-18 16:11:15,35069,1892
2024-12-18 16:11:15,35068,1891
2024-12-18 16:11:15,35067,1889
2024-12-18 16:11:15,35068,1887
2024-12-18 16:11:16,35068,1885
2024-12-18 16:11:16,35067,1885
2024-12-18 16:11:16,35067,1883
2024-12-18 16:11:17,35068,1885
2024-12-18 16:11:17,35068,1885
2024-12-18 16:11:17,35067,1884
2024-12-18 16:11:18,35067,1883
2024-12-18 16:11:18,35068,1885
2024-12-18 16:11:18,35068,1885
2024-12-18 16:11:18,35068,1885
2024-12-18 16:11:19,35068,1885
2024-12-18 16:11:19,35068,1886
2024-12-18 16:11:19,35067,1886
2024-12-18 16:11:19,35068,1887
2024-12-18 16:11:20,35067,1888
2024-12-18 16:11:20,35067,1889
2024-12-18 16:11:20,35068,1891
2024-12-18 16:11:21,35068,1892
2024-12-18 16:11:21,35068,1895
2024-12-18 16:11:21,35067,1901
2024-12-18 16:11:22,35070,1901
2024-12-18 16:11:22,35068,1902
2024-12-18 16:11:23,35067,1903
2024-12-18 16:11:23,35067,1905
2024-12-18 16:11:23,35066,1905
2024-12-18 16:11:23,35066,1907
2024-12-18 16:11:23,35066,1908
2024-12-18 16:11:24,35066,1908
2024-12-18 16:11:24,35066,1910
2024-12-18 16:11:24,35066,1911
2024-12-18 16:11:24,35067,1911
2024-12-18 16:11:24,35066,1913
2024-12-18 16:11:24,35066,1914
2024-12-18 16:11:24,35066,1914
2024-12-18 16:11:24,35066,1914
2024-12-18 16:11:24,35067,1914
2024-12-18 16:11:25,35066,1914
2024-12-18 16:11:25,35067,1913
2024-12-18 16:11:25,35066,1912
2024-12-18 16:11:25,35066,1911
2024-12-18 16:11:25,35066,1911
2024-12-18 16:11:25,35066,1909
2024-12-18 16:11:25,35066,1909
2024-12-18 16:11:26,35067,1908
2024-12-18 16:11:26,35066,1907
2024-12-18 16:11:26,35068,1909
2024-12-18 16:11:26,35068,1906
2024-12-18 16:11:27,35066,1903
2024-12-18 16:11:27,35066,1902
2024-12-18 16:11:27,35066,1901
2024-12-18 16:11:27,35065,1898
2024-12-18 16:11:28,35065,1896
2024-12-18 16:11:28,35065,1894
2024-12-18 16:11:28,35065,1894
2024-12-18 16:11:29,35065,1892
2024-12-18 16:11:29,35065,1894
2024-12-18 16:11:29,35065,1893
2024-12-18 16:11:30,35065,1893
2024-12-18 16:11:30,35064,1892
2024-12-18 16:11:30,35065,1893
2024-12-18 16:11:31,35065,1891
2024-12-18 16:11:31,35065,1892
2024-12-18 16:11:31,35065,1892
2024-12-18 16:11:32,35065,1890
2024-12-18 16:11:32,35065,1890
2024-12-18 16:11:32,35065,1888
2024-12-18 16:11:32,35065,1889
2024-12-18 16:11:33,35065,1889
2024-12-18 16:11:33,35065,1887
2024-12-18 16:11:33,35065,1885
2024-12-18 16:11:34,35065,1884
2024-12-18 16:11:34,35071,1887
2024-12-18 16:11:34,35067,1884
2024-12-18 16:11:34,35065,1883
2024-12-18 16:11:35,35064,1882
2024-12-18 16:11:35,35065,1882
2024-12-18 16:11:35,35064,1879
2024-12-18 16:11:36,35064,1880
2024-12-18 16:11:36,35063,1879
2024-12-18 16:11:36,35063,1880
2024-12-18 16:11:36,35064,1879
2024-12-18 16:11:36,35064,1880
2024-12-18 16:11:36,35063,1879
2024-12-18 16:11:36,35063,1879
2024-12-18 16:11:37,35064,1879
2024-12-18 16:11:37,35064,1879
2024-12-18 16:11:37,35064,1878
2024-12-18 16:11:38,35064,1878
2024-12-18 16:11:38,35064,1879
2024-12-18 16:11:38,35064,1878
2024-12-18 16:11:39,35064,1879
2024-12-18 16:11:39,35064,1877
2024-12-18 16:11:39,35064,1878
2024-12-18 16:11:39,35064,1877
2024-12-18 16:11:40,35064,1877
2024-12-18 16:11:40,35064,1877
2024-12-18 16:11:40,35064,1877
2024-12-18 16:11:41,35069,1880
2024-12-18 16:11:41,35066,1876
2024-12-18 16:11:41,35064,1873
2024-12-18 16:11:41,35064,1872
2024-12-18 16:11:41,35064,1870
2024-12-18 16:11:42,35063,1868
2024-12-18 16:11:42,35063,1868
2024-12-18 16:11:42,35063,1865
2024-12-18 16:11:43,35063,1864
2024-12-18 16:11:43,35064,1862
2024-12-18 16:11:43,35064,1861
2024-12-18 16:11:43,35064,1860
2024-12-18 16:11:43,35065,1860
2024-12-18 16:11:44,35065,1859
2024-12-18 16:11:44,35065,1858
2024-12-18 16:11:44,35065,1857
2024-12-18 16:11:45,35065,1857
2024-12-18 16:11:45,35065,1857
2024-12-18 16:11:45,35065,1856
2024-12-18 16:11:45,35064,1857
2024-12-18 16:11:45,35065,1856
2024-12-18 16:11:46,35065,1856
2024-12-18 16:11:46,35065,1857
2024-12-18 16:11:46,35065,1858
2024-12-18 16:11:46,35065,1858
2024-12-18 16:11:47,35065,1859
2024-12-18 16:11:47,35069,1862
2024-12-18 16:11:47,35068,1862
2024-12-18 16:11:47,35065,1862
2024-12-18 16:11:48,35065,1862
2024-12-18 16:11:48,35065,1864
2024-12-18 16:11:48,35063,1864
2024-12-18 16:11:48,35063,1866
2024-12-18 16:11:49,35063,1866
2024-12-18 16:11:49,35063,1867
2024-12-18 16:11:49,35064,1868
2024-12-18 16:11:50,35063,1868
2024-12-18 16:11:50,35063,1869
2024-12-18 16:11:50,35064,1869
2024-12-18 16:11:50,35064,1869
2024-12-18 16:11:50,35064,1868
2024-12-18 16:11:51,35063,1870
2024-12-18 16:11:51,35064,1870
2024-12-18 16:11:51,35064,1871
2024-12-18 16:11:51,35064,1871
2024-12-18 16:11:52,35063,1870
2024-12-18 16:11:52,35063,1871
2024-12-18 16:11:52,35064,1871
2024-12-18 16:11:53,35064,1870
2024-12-18 16:11:53,35063,1868
2024-12-18 16:11:53,35063,1869
2024-12-18 16:11:54,35064,1868
2024-12-18 16:11:54,35069,1870
2024-12-18 16:11:54,35066,1868
2024-12-18 16:11:54,35063,1868
2024-12-18 16:11:55,35063,1867
2024-12-18 16:11:55,35063,1866
2024-12-18 16:11:55,35062,1864
2024-12-18 16:11:55,35062,1864
2024-12-18 16:11:55,35062,1864
2024-12-18 16:11:55,35062,1863
2024-12-18 16:11:56,35062,1862
2024-12-18 16:11:56,35062,1860
2024-12-18 16:11:56,35062,1860
2024-12-18 16:11:56,35062,1859
2024-12-18 16:11:57,35062,1858
2024-12-18 16:11:57,35062,1858
2024-12-18 16:11:57,35062,1857
2024-12-18 16:11:58,35062,1857
2024-12-18 16:11:58,35062,1858
2024-12-18 16:11:59,35062,1858
2024-12-18 16:11:59,35062,1859
2024-12-18 16:11:59,35062,1859
2024-12-18 16:11:59,35062,1859
2024-12-18 16:12:00,35062,1860
2024-12-18 16:12:00,35061,1860
2024-12-18 16:12:00,35062,1862
2024-12-18 16:12:01,35062,1861
2024-12-18 16:12:01,35063,1865
2024-12-18 16:12:01,35063,1864
2024-12-18 16:12:01,35062,1863
2024-12-18 16:12:01,35062,1863
2024-12-18 16:12:02,35062,1863
2024-12-18 16:12:02,35061,1863
2024-12-18 16:12:02,35060,1861
2024-12-18 16:12:02,35060,1863
2024-12-18 16:12:03,35060,1861
2024-12-18 16:12:03,35060,1861
2024-12-18 16:12:03,35060,1861
2024-12-18 16:12:03,35060,1860
2024-12-18 16:12:04,35061,1859
2024-12-18 16:12:04,35061,1858
2024-12-18 16:12:04,35061,1857
2024-12-18 16:12:05,35061,1856
2024-12-18 16:12:05,35060,1857
2024-12-18 16:12:05,35061,1857
2024-12-18 16:12:05,35060,1856
2024-12-18 16:12:05,35060,1856
2024-12-18 16:12:05,35061,1856
2024-12-18 16:12:05,35061,1856
2024-12-18 16:12:05,35060,1856
2024-12-18 16:12:05,35060,1855
2024-12-18 16:12:05,35060,1854
2024-12-18 16:12:05,35060,1854
2024-12-18 16:12:05,35066,1855
2024-12-18 16:12:05,35062,1855
2024-12-18 16:12:05,35061,1853
2024-12-18 16:12:05,35060,1853
2024-12-18 16:12:05,35060,1854
2024-12-18 16:12:05,35059,1854
