Timestamp,GSR_Value,PPG_Value
2024-12-18 19:01:33,52802,1932
2024-12-18 19:01:33,52810,1929
2024-12-18 19:01:33,52804,1931
2024-12-18 19:01:33,52790,1928
2024-12-18 19:01:34,52776,1926
2024-12-18 19:01:34,52769,1923
2024-12-18 19:01:34,52773,1922
2024-12-18 19:01:35,52788,1920
2024-12-18 19:01:35,52797,1918
2024-12-18 19:01:36,52801,1918
2024-12-18 19:01:36,52800,1915
2024-12-18 19:01:36,52795,1914
2024-12-18 19:01:37,52781,1912
2024-12-18 19:01:37,52770,1909
2024-12-18 19:01:37,52769,1906
2024-12-18 19:01:37,52783,1904
2024-12-18 19:01:37,52795,1901
2024-12-18 19:01:37,52801,1900
2024-12-18 19:01:37,52803,1896
2024-12-18 19:01:37,52800,1893
2024-12-18 19:01:37,52791,1890
2024-12-18 19:01:37,52777,1887
2024-12-18 19:01:37,52769,1885
2024-12-18 19:01:37,52775,1882
2024-12-18 19:01:37,52790,1879
2024-12-18 19:01:37,52799,1876
2024-12-18 19:01:37,52803,1873
2024-12-18 19:01:37,52810,1877
2024-12-18 19:01:37,52800,1872
2024-12-18 19:01:37,52784,1868
2024-12-18 19:01:37,52772,1868
2024-12-18 19:01:37,52769,1867
2024-12-18 19:01:37,52780,1864
2024-12-18 19:01:37,52792,1865
2024-12-18 19:01:37,52799,1865
2024-12-18 19:01:37,52800,1867
2024-12-18 19:01:37,52798,1866
2024-12-18 19:01:37,52789,1867
2024-12-18 19:01:37,52776,1868
2024-12-18 19:01:37,52768,1871
2024-12-18 19:01:37,52773,1871
2024-12-18 19:01:37,52788,1873
2024-12-18 19:01:37,52797,1874
2024-12-18 19:01:38,52801,1876
2024-12-18 19:01:38,52801,1878
2024-12-18 19:01:38,52797,1877
2024-12-18 19:01:38,52784,1880
2024-12-18 19:01:38,52772,1882
2024-12-18 19:01:38,52769,1882
2024-12-18 19:01:38,52781,1883
2024-12-18 19:01:38,52793,1884
2024-12-18 19:01:38,52800,1886
2024-12-18 19:01:38,52802,1887
2024-12-18 19:01:38,52804,1894
2024-12-18 19:01:38,52794,1891
2024-12-18 19:01:38,52778,1891
2024-12-18 19:01:38,52769,1892
2024-12-18 19:01:38,52772,1892
2024-12-18 19:01:38,52785,1893
2024-12-18 19:01:38,52795,1895
2024-12-18 19:01:39,52799,1895
2024-12-18 19:01:39,52800,1895
2024-12-18 19:01:39,52796,1897
2024-12-18 19:01:40,52783,1899
2024-12-18 19:01:40,52771,1900
2024-12-18 19:01:40,52768,1901
2024-12-18 19:01:40,52779,1901
2024-12-18 19:01:41,52792,1902
2024-12-18 19:01:41,52800,1903
2024-12-18 19:01:41,52802,1903
2024-12-18 19:01:42,52801,1904
2024-12-18 19:01:42,52792,1904
2024-12-18 19:01:43,52778,1904
2024-12-18 19:01:43,52770,1904
2024-12-18 19:01:43,52773,1904
2024-12-18 19:01:43,52787,1906
2024-12-18 19:01:44,52798,1907
2024-12-18 19:01:44,52802,1907
2024-12-18 19:01:44,52802,1907
2024-12-18 19:01:44,52801,1913
2024-12-18 19:01:44,52784,1911
2024-12-18 19:01:44,52774,1910
2024-12-18 19:01:44,52769,1910
2024-12-18 19:01:44,52778,1912
2024-12-18 19:01:44,52791,1912
2024-12-18 19:01:44,52798,1914
2024-12-18 19:01:44,52800,1915
2024-12-18 19:01:44,52799,1916
2024-12-18 19:01:44,52792,1919
2024-12-18 19:01:44,52778,1920
2024-12-18 19:01:44,52769,1922
2024-12-18 19:01:44,52771,1923
2024-12-18 19:01:44,52785,1925
2024-12-18 19:01:44,52795,1927
2024-12-18 19:01:44,52801,1929
2024-12-18 19:01:44,52801,1930
2024-12-18 19:01:44,52798,1931
2024-12-18 19:01:44,52786,1933
2024-12-18 19:01:44,52773,1933
2024-12-18 19:01:44,52768,1934
2024-12-18 19:01:44,52777,1935
2024-12-18 19:01:44,52791,1936
2024-12-18 19:01:44,52799,1937
2024-12-18 19:01:44,52802,1936
2024-12-18 19:01:44,52801,1937
2024-12-18 19:01:44,52797,1940
2024-12-18 19:01:44,52789,1940
2024-12-18 19:01:44,52770,1938
2024-12-18 19:01:44,52771,1937
2024-12-18 19:01:44,52784,1937
2024-12-18 19:01:44,52793,1935
2024-12-18 19:01:44,52798,1934
2024-12-18 19:01:44,52799,1932
2024-12-18 19:01:44,52796,1930
2024-12-18 19:01:44,52785,1930
2024-12-18 19:01:44,52772,1928
2024-12-18 19:01:44,52767,1926
2024-12-18 19:01:44,52775,1922
2024-12-18 19:01:44,52789,1919
2024-12-18 19:01:44,52798,1918
2024-12-18 19:01:44,52802,1916
2024-12-18 19:01:44,52800,1912
2024-12-18 19:01:44,52794,1909
2024-12-18 19:01:44,52780,1907
2024-12-18 19:01:44,52770,1903
2024-12-18 19:01:44,52770,1901
2024-12-18 19:01:44,52784,1898
2024-12-18 19:01:44,52795,1896
2024-12-18 19:01:44,52801,1894
2024-12-18 19:01:44,52802,1891
2024-12-18 19:01:44,52799,1890
2024-12-18 19:01:44,52801,1895
2024-12-18 19:01:44,52785,1888
2024-12-18 19:01:44,52769,1886
2024-12-18 19:01:44,52775,1884
2024-12-18 19:01:44,52789,1884
2024-12-18 19:01:44,52796,1883
2024-12-18 19:01:44,52799,1881
2024-12-18 19:01:44,52799,1882
2024-12-18 19:01:44,52793,1881
2024-12-18 19:01:44,52779,1880
2024-12-18 19:01:44,52769,1880
2024-12-18 19:01:44,52768,1880
2024-12-18 19:01:44,52782,1880
2024-12-18 19:01:44,52794,1881
2024-12-18 19:01:44,52800,1882
2024-12-18 19:01:44,52802,1885
2024-12-18 19:01:44,52799,1887
2024-12-18 19:01:44,52789,1887
2024-12-18 19:01:44,52775,1891
2024-12-18 19:01:44,52768,1893
2024-12-18 19:01:44,52774,1896
2024-12-18 19:01:44,52789,1900
2024-12-18 19:01:44,52798,1902
2024-12-18 19:01:44,52802,1906
2024-12-18 19:01:44,52801,1909
2024-12-18 19:01:44,52796,1911
2024-12-18 19:01:44,52784,1921
2024-12-18 19:01:44,52773,1920
2024-12-18 19:01:44,52769,1923
2024-12-18 19:01:44,52781,1926
2024-12-18 19:01:44,52794,1927
2024-12-18 19:01:44,52798,1930
2024-12-18 19:01:44,52800,1932
2024-12-18 19:01:44,52797,1935
2024-12-18 19:01:44,52788,1938
2024-12-18 19:01:44,52774,1941
2024-12-18 19:01:44,52766,1945
2024-12-18 19:01:44,52772,1948
2024-12-18 19:01:44,52787,1950
2024-12-18 19:01:44,52797,1954
2024-12-18 19:01:44,52801,1958
2024-12-18 19:01:44,52801,1961
2024-12-18 19:01:44,52796,1964
2024-12-18 19:01:44,52783,1966
2024-12-18 19:01:44,52771,1971
2024-12-18 19:01:44,52768,1975
2024-12-18 19:01:44,52781,1978
2024-12-18 19:01:44,52794,1982
2024-12-18 19:01:44,52801,1986
2024-12-18 19:01:44,52803,1989
2024-12-18 19:01:44,52800,1993
2024-12-18 19:01:44,52791,1995
2024-12-18 19:01:44,52776,2006
2024-12-18 19:01:44,52774,2005
2024-12-18 19:01:44,52774,2007
2024-12-18 19:01:44,52788,2010
2024-12-18 19:01:44,52798,2013
2024-12-18 19:01:44,52800,2016
2024-12-18 19:01:44,52799,2019
2024-12-18 19:01:44,52795,2021
2024-12-18 19:01:44,52782,2023
2024-12-18 19:01:44,52770,2025
2024-12-18 19:01:44,52767,2028
2024-12-18 19:01:44,52778,2030
2024-12-18 19:01:44,52792,2033
2024-12-18 19:01:44,52800,2036
2024-12-18 19:01:44,52802,2037
2024-12-18 19:01:44,52800,2040
2024-12-18 19:01:44,52791,2040
2024-12-18 19:01:44,52777,2041
2024-12-18 19:01:44,52768,2043
2024-12-18 19:01:44,52772,2044
2024-12-18 19:01:44,52787,2044
2024-12-18 19:01:44,52797,2045
2024-12-18 19:01:44,52802,2046
2024-12-18 19:01:44,52802,2046
2024-12-18 19:01:44,52798,2046
2024-12-18 19:01:44,52785,2045
2024-12-18 19:01:44,52767,2054
2024-12-18 19:01:44,52771,2049
2024-12-18 19:01:44,52779,2047
2024-12-18 19:01:44,52792,2047
2024-12-18 19:01:44,52799,2046
2024-12-18 19:01:44,52800,2045
2024-12-18 19:01:44,52798,2045
2024-12-18 19:01:44,52790,2043
2024-12-18 19:01:44,52776,2043
2024-12-18 19:01:44,52767,2042
2024-12-18 19:01:44,52769,2042
2024-12-18 19:01:44,52784,2042
2024-12-18 19:01:44,52795,2040
2024-12-18 19:01:44,52800,2040
2024-12-18 19:01:44,52801,2038
2024-12-18 19:01:44,52797,2036
2024-12-18 19:01:44,52785,2036
2024-12-18 19:01:44,52772,2034
2024-12-18 19:01:44,52767,2032
2024-12-18 19:01:44,52777,2030
2024-12-18 19:01:44,52791,2030
2024-12-18 19:01:44,52799,2028
2024-12-18 19:01:44,52802,2027
2024-12-18 19:01:44,52801,2025
2024-12-18 19:01:44,52793,2024
2024-12-18 19:01:44,52778,2024
2024-12-18 19:01:44,52778,2030
2024-12-18 19:01:44,52774,2023
2024-12-18 19:01:44,52785,2022
2024-12-18 19:01:44,52796,2020
2024-12-18 19:01:44,52800,2020
2024-12-18 19:01:44,52799,2020
2024-12-18 19:01:44,52795,2018
2024-12-18 19:01:44,52784,2017
2024-12-18 19:01:44,52770,2017
2024-12-18 19:01:44,52765,2017
2024-12-18 19:01:44,52774,2017
2024-12-18 19:01:44,52789,2016
2024-12-18 19:01:44,52797,2016
2024-12-18 19:01:44,52800,2017
2024-12-18 19:01:44,52799,2016
2024-12-18 19:01:44,52792,2017
2024-12-18 19:01:44,52778,2016
2024-12-18 19:01:44,52768,2018
2024-12-18 19:01:44,52769,2018
2024-12-18 19:01:44,52783,2017
2024-12-18 19:01:44,52794,2019
2024-12-18 19:01:44,52800,2018
2024-12-18 19:01:44,52801,2017
2024-12-18 19:01:44,52798,2018
2024-12-18 19:01:44,52787,2016
2024-12-18 19:01:44,52773,2016
2024-12-18 19:01:44,52780,2023
2024-12-18 19:01:44,52779,2015
2024-12-18 19:01:44,52790,2012
2024-12-18 19:01:44,52798,2010
2024-12-18 19:01:44,52800,2009
2024-12-18 19:01:44,52797,2006
2024-12-18 19:01:44,52791,2003
2024-12-18 19:01:44,52777,2003
2024-12-18 19:01:44,52767,2002
2024-12-18 19:01:44,52767,2000
2024-12-18 19:01:44,52780,2000
2024-12-18 19:01:44,52792,1998
2024-12-18 19:01:44,52798,1998
2024-12-18 19:01:44,52800,1997
2024-12-18 19:01:44,52797,1996
2024-12-18 19:01:44,52787,1996
2024-12-18 19:01:44,52773,1996
2024-12-18 19:01:44,52766,1996
2024-12-18 19:01:44,52774,1996
2024-12-18 19:01:44,52788,1995
2024-12-18 19:01:44,52796,1996
2024-12-18 19:01:44,52801,1996
2024-12-18 19:01:44,52799,1994
2024-12-18 19:01:44,52794,1995
2024-12-18 19:01:44,52780,1995
2024-12-18 19:01:44,52769,1996
2024-12-18 19:01:44,52779,2003
2024-12-18 19:01:44,52788,1998
2024-12-18 19:01:44,52793,1999
2024-12-18 19:01:44,52799,2000
2024-12-18 19:01:44,52799,2000
2024-12-18 19:01:44,52795,2000
2024-12-18 19:01:44,52785,2000
2024-12-18 19:01:44,52772,2002
2024-12-18 19:01:44,52765,2003
2024-12-18 19:01:44,52771,2002
2024-12-18 19:01:44,52786,2004
2024-12-18 19:01:44,52795,2005
2024-12-18 19:01:44,52799,2006
2024-12-18 19:01:44,52799,2006
2024-12-18 19:01:44,52793,2007
2024-12-18 19:01:44,52780,2010
2024-12-18 19:01:45,52769,2011
2024-12-18 19:01:45,52768,2012
2024-12-18 19:01:45,52779,2014
2024-12-18 19:01:45,52792,2016
2024-12-18 19:01:45,52798,2017
2024-12-18 19:01:45,52800,2018
2024-12-18 19:01:45,52798,2017
2024-12-18 19:01:45,52788,2017
2024-12-18 19:01:45,52775,2017
2024-12-18 19:01:45,52767,2016
2024-12-18 19:01:45,52778,2017
2024-12-18 19:01:45,52793,2016
2024-12-18 19:01:45,52796,2015
2024-12-18 19:01:45,52799,2014
2024-12-18 19:01:45,52799,2011
2024-12-18 19:01:45,52792,2009
2024-12-18 19:01:45,52779,2007
2024-12-18 19:01:45,52767,2007
2024-12-18 19:01:45,52765,2004
2024-12-18 19:01:45,52777,2002
2024-12-18 19:01:45,52789,2000
2024-12-18 19:01:45,52796,1998
2024-12-18 19:01:45,52798,1996
2024-12-18 19:01:45,52796,1994
2024-12-18 19:01:45,52788,1992
2024-12-18 19:01:45,52775,1992
2024-12-18 19:01:45,52767,1989
2024-12-18 19:01:45,52771,1988
2024-12-18 19:01:45,52785,1987
2024-12-18 19:01:45,52795,1986
2024-12-18 19:01:45,52799,1984
2024-12-18 19:01:45,52799,1983
2024-12-18 19:01:45,52794,1982
2024-12-18 19:01:45,52782,1981
2024-12-18 19:01:45,52771,1980
2024-12-18 19:01:45,52767,1978
2024-12-18 19:01:45,52791,1979
2024-12-18 19:01:45,52793,1978
2024-12-18 19:01:45,52798,1976
2024-12-18 19:01:45,52799,1976
2024-12-18 19:01:45,52797,1974
2024-12-18 19:01:45,52787,1975
2024-12-18 19:01:45,52773,1975
2024-12-18 19:01:45,52765,1974
2024-12-18 19:01:45,52768,1974
2024-12-18 19:01:45,52782,1973
2024-12-18 19:01:45,52792,1973
2024-12-18 19:01:45,52797,1973
2024-12-18 19:01:45,52798,1972
2024-12-18 19:01:45,52794,1973
2024-12-18 19:01:45,52782,1971
2024-12-18 19:01:45,52770,1970
2024-12-18 19:01:45,52766,1971
2024-12-18 19:01:45,52776,1971
2024-12-18 19:01:45,52789,1970
2024-12-18 19:01:45,52796,1969
2024-12-18 19:01:45,52799,1968
2024-12-18 19:01:45,52797,1967
2024-12-18 19:01:45,52790,1965
2024-12-18 19:01:45,52776,1964
2024-12-18 19:01:45,52768,1963
2024-12-18 19:01:45,52770,1961
2024-12-18 19:01:45,52793,1964
2024-12-18 19:01:45,52796,1963
2024-12-18 19:01:45,52799,1959
2024-12-18 19:01:45,52799,1959
2024-12-18 19:01:45,52794,1958
2024-12-18 19:01:45,52781,1957
2024-12-18 19:01:45,52769,1956
2024-12-18 19:01:45,52765,1955
2024-12-18 19:01:45,52773,1956
2024-12-18 19:01:45,52787,1955
2024-12-18 19:01:45,52794,1955
2024-12-18 19:01:45,52798,1956
2024-12-18 19:01:45,52797,1955
2024-12-18 19:01:45,52790,1956
2024-12-18 19:01:45,52777,1958
2024-12-18 19:01:45,52768,1958
2024-12-18 19:01:45,52769,1958
2024-12-18 19:01:45,52782,1959
2024-12-18 19:01:45,52793,1962
2024-12-18 19:01:45,52798,1963
2024-12-18 19:01:45,52798,1963
2024-12-18 19:01:45,52795,1966
2024-12-18 19:01:45,52785,1968
2024-12-18 19:01:45,52772,1969
2024-12-18 19:01:45,52767,1970
2024-12-18 19:01:45,52775,1970
2024-12-18 19:01:45,52800,1975
2024-12-18 19:01:45,52799,1973
2024-12-18 19:01:45,52800,1972
2024-12-18 19:01:45,52798,1973
2024-12-18 19:01:45,52792,1974
2024-12-18 19:01:45,52776,1973
2024-12-18 19:01:45,52766,1974
2024-12-18 19:01:45,52767,1974
2024-12-18 19:01:45,52780,1975
2024-12-18 19:01:45,52791,1975
2024-12-18 19:01:45,52797,1974
2024-12-18 19:01:45,52798,1974
2024-12-18 19:01:45,52795,1974
2024-12-18 19:01:45,52785,1973
2024-12-18 19:01:45,52772,1973
2024-12-18 19:01:45,52766,1970
2024-12-18 19:01:45,52773,1970
2024-12-18 19:01:45,52787,1968
2024-12-18 19:01:45,52796,1966
2024-12-18 19:01:45,52799,1964
2024-12-18 19:01:45,52798,1962
2024-12-18 19:01:45,52792,1961
2024-12-18 19:01:45,52780,1958
2024-12-18 19:01:45,52769,1955
2024-12-18 19:01:45,52768,1954
2024-12-18 19:01:45,52781,1952
2024-12-18 19:01:45,52804,1955
2024-12-18 19:01:45,52802,1950
2024-12-18 19:01:45,52800,1946
2024-12-18 19:01:45,52797,1943
2024-12-18 19:01:45,52786,1941
2024-12-18 19:01:45,52771,1937
2024-12-18 19:01:45,52765,1935
2024-12-18 19:01:45,52770,1933
2024-12-18 19:01:45,52785,1931
2024-12-18 19:01:45,52794,1929
2024-12-18 19:01:45,52798,1926
2024-12-18 19:01:45,52797,1926
2024-12-18 19:01:45,52792,1924
2024-12-18 19:01:45,52779,1922
2024-12-18 19:01:45,52769,1922
2024-12-18 19:01:45,52767,1920
2024-12-18 19:01:45,52780,1920
2024-12-18 19:01:45,52792,1920
2024-12-18 19:01:45,52798,1919
2024-12-18 19:01:45,52800,1919
2024-12-18 19:01:45,52797,1919
2024-12-18 19:01:45,52788,1919
2024-12-18 19:01:45,52775,1920
2024-12-18 19:01:45,52767,1919
2024-12-18 19:01:45,52772,1918
2024-12-18 19:01:45,52787,1918
2024-12-18 19:01:45,52805,1920
2024-12-18 19:01:45,52802,1917
2024-12-18 19:01:45,52800,1917
2024-12-18 19:01:45,52794,1915
2024-12-18 19:01:45,52780,1915
2024-12-18 19:01:45,52767,1913
2024-12-18 19:01:45,52765,1913
2024-12-18 19:01:45,52777,1913
2024-12-18 19:01:45,52789,1913
2024-12-18 19:01:45,52796,1913
2024-12-18 19:01:45,52798,1912
2024-12-18 19:01:45,52796,1911
2024-12-18 19:01:45,52788,1912
2024-12-18 19:01:45,52774,1912
2024-12-18 19:01:45,52766,1912
2024-12-18 19:01:45,52770,1913
2024-12-18 19:01:45,52785,1914
2024-12-18 19:01:45,52795,1915
2024-12-18 19:01:45,52799,1915
2024-12-18 19:01:45,52799,1918
2024-12-18 19:01:45,52794,1918
2024-12-18 19:01:45,52781,1922
2024-12-18 19:01:45,52769,1924
2024-12-18 19:01:45,52766,1927
2024-12-18 19:01:45,52777,1928
2024-12-18 19:01:45,52790,1931
2024-12-18 19:01:45,52812,1935
2024-12-18 19:01:45,52802,1935
2024-12-18 19:01:45,52798,1935
2024-12-18 19:01:45,52789,1935
2024-12-18 19:01:45,52774,1935
2024-12-18 19:01:45,52763,1935
2024-12-18 19:01:45,52767,1936
2024-12-18 19:01:45,52782,1935
2024-12-18 19:01:45,52792,1936
2024-12-18 19:01:45,52796,1936
2024-12-18 19:01:45,52797,1935
2024-12-18 19:01:45,52792,1934
2024-12-18 19:01:45,52780,1932
2024-12-18 19:01:45,52768,1933
2024-12-18 19:01:45,52765,1932
2024-12-18 19:01:45,52775,1931
2024-12-18 19:01:45,52788,1931
2024-12-18 19:01:45,52796,1929
2024-12-18 19:01:45,52798,1929
2024-12-18 19:01:45,52797,1928
2024-12-18 19:01:45,52789,1926
2024-12-18 19:01:45,52774,1927
2024-12-18 19:01:45,52765,1926
2024-12-18 19:01:45,52768,1926
2024-12-18 19:01:45,52783,1927
2024-12-18 19:01:45,52793,1926
2024-12-18 19:01:45,52811,1929
2024-12-18 19:01:45,52801,1930
2024-12-18 19:01:45,52795,1928
2024-12-18 19:01:45,52782,1929
2024-12-18 19:01:45,52769,1929
2024-12-18 19:01:45,52762,1928
2024-12-18 19:01:45,52772,1928
2024-12-18 19:01:45,52785,1930
2024-12-18 19:01:45,52793,1930
2024-12-18 19:01:45,52796,1931
2024-12-18 19:01:45,52795,1932
2024-12-18 19:01:45,52787,1931
2024-12-18 19:01:45,52774,1931
2024-12-18 19:01:45,52764,1931
2024-12-18 19:01:45,52766,1932
2024-12-18 19:01:45,52781,1931
2024-12-18 19:01:45,52791,1932
2024-12-18 19:01:45,52797,1932
2024-12-18 19:01:45,52797,1932
2024-12-18 19:01:45,52794,1932
2024-12-18 19:01:45,52782,1932
2024-12-18 19:01:45,52769,1932
2024-12-18 19:01:45,52764,1931
2024-12-18 19:01:45,52773,1929
2024-12-18 19:01:45,52787,1929
2024-12-18 19:01:45,52795,1927
2024-12-18 19:01:45,52804,1928
2024-12-18 19:01:45,52799,1926
2024-12-18 19:01:45,52790,1924
2024-12-18 19:01:45,52775,1922
2024-12-18 19:01:45,52764,1920
2024-12-18 19:01:46,52764,1917
2024-12-18 19:01:46,52778,1915
2024-12-18 19:01:46,52789,1913
2024-12-18 19:01:47,52795,1911
2024-12-18 19:01:47,52796,1909
2024-12-18 19:01:47,52793,1908
2024-12-18 19:01:47,52782,1905
2024-12-18 19:01:48,52768,1904
2024-12-18 19:01:48,52763,1903
2024-12-18 19:01:48,52771,1902
2024-12-18 19:01:49,52786,1901
2024-12-18 19:01:49,52794,1899
2024-12-18 19:01:49,52798,1898
2024-12-18 19:01:50,52797,1896
2024-12-18 19:01:50,52790,1895
2024-12-18 19:01:50,52776,1896
2024-12-18 19:01:50,52766,1895
2024-12-18 19:01:51,52766,1893
2024-12-18 19:01:51,52780,1894
2024-12-18 19:01:51,52791,1892
2024-12-18 19:01:51,52796,1892
2024-12-18 19:01:52,52802,1897
2024-12-18 19:01:52,52798,1891
2024-12-18 19:01:52,52785,1890
2024-12-18 19:01:53,52770,1889
2024-12-18 19:01:53,52763,1887
2024-12-18 19:01:53,52768,1887
2024-12-18 19:01:54,52783,1886
2024-12-18 19:01:54,52792,1886
2024-12-18 19:01:54,52795,1886
2024-12-18 19:01:55,52795,1884
2024-12-18 19:01:55,52789,1884
2024-12-18 19:01:55,52775,1884
2024-12-18 19:01:55,52764,1884
2024-12-18 19:01:56,52764,1883
2024-12-18 19:01:56,52777,1883
2024-12-18 19:01:56,52789,1884
2024-12-18 19:01:56,52796,1884
2024-12-18 19:01:57,52797,1883
2024-12-18 19:01:57,52794,1884
2024-12-18 19:01:57,52784,1885
2024-12-18 19:01:58,52770,1887
2024-12-18 19:01:58,52763,1886
2024-12-18 19:01:58,52770,1887
2024-12-18 19:01:59,52784,1888
2024-12-18 19:01:59,52794,1888
2024-12-18 19:01:59,52797,1889
2024-12-18 19:02:00,52802,1892
2024-12-18 19:02:00,52794,1893
2024-12-18 19:02:00,52779,1894
