Timestamp,GSR_Value,PPG_Value
2024-12-18 15:02:31,35036,2010
2024-12-18 15:02:31,35039,2006
2024-12-18 15:02:31,35035,2003
2024-12-18 15:02:31,35034,2001
2024-12-18 15:02:31,35034,2000
2024-12-18 15:02:31,35033,1997
2024-12-18 15:02:31,35033,1994
2024-12-18 15:02:31,35033,1992
2024-12-18 15:02:31,35034,1991
2024-12-18 15:02:31,35034,1990
2024-12-18 15:02:31,35033,1987
2024-12-18 15:02:31,35033,1986
2024-12-18 15:02:31,35033,1985
2024-12-18 15:02:31,35034,1984
2024-12-18 15:02:31,35033,1984
2024-12-18 15:02:31,35034,1983
2024-12-18 15:02:31,35033,1983
2024-12-18 15:02:31,35034,1984
2024-12-18 15:02:31,35033,1984
2024-12-18 15:02:31,35034,1984
2024-12-18 15:02:31,35033,1982
2024-12-18 15:02:31,35034,1983
2024-12-18 15:02:31,35034,1983
2024-12-18 15:02:31,35034,1982
2024-12-18 15:02:31,35033,1983
2024-12-18 15:02:31,35034,1983
2024-12-18 15:02:31,35036,1984
2024-12-18 15:02:31,35035,1985
2024-12-18 15:02:31,35034,1984
2024-12-18 15:02:31,35034,1984
2024-12-18 15:02:31,35034,1984
2024-12-18 15:02:31,35033,1983
2024-12-18 15:02:31,35032,1983
2024-12-18 15:02:31,35033,1984
2024-12-18 15:02:31,35033,1983
2024-12-18 15:02:31,35033,1983
2024-12-18 15:02:31,35032,1982
2024-12-18 15:02:31,35033,1981
2024-12-18 15:02:31,35033,1982
2024-12-18 15:02:31,35033,1982
2024-12-18 15:02:31,35033,1982
2024-12-18 15:02:31,35033,1981
2024-12-18 15:02:31,35033,1980
2024-12-18 15:02:31,35033,1979
2024-12-18 15:02:31,35033,1978
2024-12-18 15:02:31,35033,1976
2024-12-18 15:02:31,35033,1974
2024-12-18 15:02:31,35033,1971
2024-12-18 15:02:31,35033,1968
2024-12-18 15:02:31,35033,1966
2024-12-18 15:02:31,35033,1965
2024-12-18 15:02:31,35033,1964
2024-12-18 15:02:31,35037,1964
2024-12-18 15:02:31,35034,1964
2024-12-18 15:02:31,35034,1962
2024-12-18 15:02:31,35033,1961
2024-12-18 15:02:31,35033,1959
2024-12-18 15:02:31,35032,1956
2024-12-18 15:02:31,35032,1954
2024-12-18 15:02:31,35032,1954
2024-12-18 15:02:31,35032,1953
2024-12-18 15:02:31,35032,1952
2024-12-18 15:02:31,35032,1951
2024-12-18 15:02:31,35032,1950
2024-12-18 15:02:31,35032,1950
2024-12-18 15:02:31,35032,1948
2024-12-18 15:02:31,35032,1946
2024-12-18 15:02:31,35032,1944
2024-12-18 15:02:31,35033,1944
2024-12-18 15:02:31,35033,1942
2024-12-18 15:02:31,35032,1942
2024-12-18 15:02:31,35032,1940
2024-12-18 15:02:31,35032,1939
2024-12-18 15:02:31,35032,1938
2024-12-18 15:02:31,35032,1937
2024-12-18 15:02:31,35032,1937
2024-12-18 15:02:31,35033,1937
2024-12-18 15:02:31,35033,1935
2024-12-18 15:02:31,35034,1936
2024-12-18 15:02:31,35034,1934
2024-12-18 15:02:31,35033,1932
2024-12-18 15:02:31,35032,1930
2024-12-18 15:02:32,35032,1929
2024-12-18 15:02:32,35031,1928
2024-12-18 15:02:32,35031,1927
2024-12-18 15:02:32,35031,1927
2024-12-18 15:02:32,35032,1926
2024-12-18 15:02:32,35031,1925
2024-12-18 15:02:32,35031,1925
2024-12-18 15:02:32,35031,1926
2024-12-18 15:02:32,35032,1925
2024-12-18 15:02:32,35032,1924
2024-12-18 15:02:32,35032,1923
2024-12-18 15:02:32,35032,1924
2024-12-18 15:02:32,35032,1923
2024-12-18 15:02:32,35032,1924
2024-12-18 15:02:32,35031,1923
2024-12-18 15:02:32,35032,1923
2024-12-18 15:02:32,35032,1924
2024-12-18 15:02:32,35032,1923
2024-12-18 15:02:32,35032,1922
2024-12-18 15:02:32,35032,1922
2024-12-18 15:02:32,35033,1922
2024-12-18 15:02:32,35032,1921
2024-12-18 15:02:32,35032,1922
2024-12-18 15:02:32,35032,1921
2024-12-18 15:02:32,35032,1922
2024-12-18 15:02:32,35032,1923
2024-12-18 15:02:32,35032,1923
2024-12-18 15:02:32,35032,1924
2024-12-18 15:02:32,35032,1923
2024-12-18 15:02:32,35033,1925
2024-12-18 15:02:32,35032,1925
2024-12-18 15:02:32,35032,1927
2024-12-18 15:02:32,35032,1929
2024-12-18 15:02:32,35032,1930
2024-12-18 15:02:32,35032,1931
2024-12-18 15:02:32,35032,1932
2024-12-18 15:02:32,35032,1932
2024-12-18 15:02:32,35032,1933
2024-12-18 15:02:32,35032,1934
2024-12-18 15:02:32,35032,1933
2024-12-18 15:02:32,35032,1934
2024-12-18 15:02:32,35032,1934
2024-12-18 15:02:32,35032,1934
2024-12-18 15:02:32,35032,1934
2024-12-18 15:02:32,35032,1935
2024-12-18 15:02:32,35032,1934
2024-12-18 15:02:32,35032,1934
2024-12-18 15:02:32,35032,1934
2024-12-18 15:02:32,35035,1935
2024-12-18 15:02:32,35033,1934
2024-12-18 15:02:32,35032,1933
2024-12-18 15:02:32,35032,1932
2024-12-18 15:02:32,35032,1930
2024-12-18 15:02:32,35031,1929
2024-12-18 15:02:32,35031,1927
2024-12-18 15:02:32,35031,1925
2024-12-18 15:02:32,35031,1923
2024-12-18 15:02:32,35031,1922
2024-12-18 15:02:32,35031,1922
2024-12-18 15:02:32,35031,1921
2024-12-18 15:02:32,35032,1919
2024-12-18 15:02:32,35031,1919
2024-12-18 15:02:32,35032,1918
2024-12-18 15:02:32,35032,1918
2024-12-18 15:02:32,35032,1918
2024-12-18 15:02:32,35032,1917
2024-12-18 15:02:32,35032,1918
2024-12-18 15:02:32,35032,1918
2024-12-18 15:02:32,35032,1918
2024-12-18 15:02:32,35032,1917
2024-12-18 15:02:32,35032,1918
2024-12-18 15:02:32,35032,1918
2024-12-18 15:02:32,35033,1918
2024-12-18 15:02:32,35032,1917
2024-12-18 15:02:32,35034,1919
2024-12-18 15:02:32,35034,1919
2024-12-18 15:02:32,35033,1918
2024-12-18 15:02:32,35032,1918
2024-12-18 15:02:32,35032,1917
2024-12-18 15:02:32,35031,1915
2024-12-18 15:02:32,35031,1914
2024-12-18 15:02:32,35031,1913
2024-12-18 15:02:32,35031,1911
2024-12-18 15:02:32,35031,1910
2024-12-18 15:02:32,35032,1908
2024-12-18 15:02:32,35032,1907
2024-12-18 15:02:32,35032,1906
2024-12-18 15:02:32,35032,1904
2024-12-18 15:02:32,35032,1904
2024-12-18 15:02:32,35032,1902
2024-12-18 15:02:32,35032,1901
2024-12-18 15:02:32,35032,1901
2024-12-18 15:02:32,35032,1899
2024-12-18 15:02:32,35032,1898
2024-12-18 15:02:32,35032,1897
2024-12-18 15:02:32,35032,1898
2024-12-18 15:02:32,35032,1898
2024-12-18 15:02:32,35033,1898
2024-12-18 15:02:32,35032,1897
2024-12-18 15:02:32,35032,1898
2024-12-18 15:02:32,35035,1900
2024-12-18 15:02:32,35034,1904
2024-12-18 15:02:32,35032,1902
2024-12-18 15:02:32,35032,1904
2024-12-18 15:02:32,35032,1906
2024-12-18 15:02:32,35031,1906
2024-12-18 15:02:32,35031,1908
2024-12-18 15:02:32,35031,1911
2024-12-18 15:02:32,35031,1912
2024-12-18 15:02:32,35031,1916
2024-12-18 15:02:32,35031,1918
2024-12-18 15:02:32,35032,1920
2024-12-18 15:02:32,35031,1923
2024-12-18 15:02:32,35032,1927
2024-12-18 15:02:32,35031,1931
2024-12-18 15:02:32,35032,1934
2024-12-18 15:02:32,35031,1939
2024-12-18 15:02:32,35031,1943
2024-12-18 15:02:32,35031,1948
2024-12-18 15:02:32,35031,1952
2024-12-18 15:02:32,35032,1958
2024-12-18 15:02:32,35032,1963
2024-12-18 15:02:32,35032,1968
2024-12-18 15:02:32,35032,1972
2024-12-18 15:02:32,35031,1977
2024-12-18 15:02:32,35031,1982
2024-12-18 15:02:32,35035,1989
2024-12-18 15:02:32,35033,1995
2024-12-18 15:02:32,35032,1999
2024-12-18 15:02:32,35032,2005
2024-12-18 15:02:32,35032,2012
2024-12-18 15:02:32,35031,2017
2024-12-18 15:02:32,35031,2023
2024-12-18 15:02:32,35031,2029
2024-12-18 15:02:32,35031,2035
2024-12-18 15:02:32,35031,2039
2024-12-18 15:02:32,35031,2045
2024-12-18 15:02:32,35032,2050
2024-12-18 15:02:32,35031,2055
2024-12-18 15:02:32,35031,2060
2024-12-18 15:02:32,35032,2064
2024-12-18 15:02:32,35031,2069
2024-12-18 15:02:32,35031,2073
2024-12-18 15:02:32,35032,2078
2024-12-18 15:02:32,35032,2082
2024-12-18 15:02:32,35032,2085
2024-12-18 15:02:32,35032,2088
2024-12-18 15:02:32,35032,2090
2024-12-18 15:02:32,35032,2091
2024-12-18 15:02:32,35032,2092
2024-12-18 15:02:32,35031,2093
2024-12-18 15:02:32,35031,2095
2024-12-18 15:02:32,35035,2097
2024-12-18 15:02:32,35033,2098
2024-12-18 15:02:32,35032,2096
2024-12-18 15:02:32,35032,2096
2024-12-18 15:02:32,35032,2097
2024-12-18 15:02:32,35031,2096
2024-12-18 15:02:32,35030,2096
2024-12-18 15:02:32,35030,2095
2024-12-18 15:02:32,35031,2095
2024-12-18 15:02:32,35031,2095
2024-12-18 15:02:32,35031,2093
2024-12-18 15:02:32,35031,2092
2024-12-18 15:02:32,35031,2090
2024-12-18 15:02:32,35032,2089
2024-12-18 15:02:32,35032,2088
2024-12-18 15:02:32,35031,2087
2024-12-18 15:02:32,35031,2088
2024-12-18 15:02:32,35032,2086
2024-12-18 15:02:32,35032,2085
2024-12-18 15:02:32,35032,2084
2024-12-18 15:02:32,35031,2084
2024-12-18 15:02:32,35032,2085
2024-12-18 15:02:32,35032,2084
2024-12-18 15:02:32,35032,2083
2024-12-18 15:02:32,35031,2083
2024-12-18 15:02:32,35032,2083
2024-12-18 15:02:32,35034,2082
2024-12-18 15:02:32,35033,2083
2024-12-18 15:02:32,35032,2080
2024-12-18 15:02:32,35032,2079
2024-12-18 15:02:32,35032,2078
2024-12-18 15:02:32,35031,2076
2024-12-18 15:02:32,35030,2075
2024-12-18 15:02:32,35031,2073
2024-12-18 15:02:32,35031,2072
2024-12-18 15:02:32,35031,2070
2024-12-18 15:02:32,35031,2068
2024-12-18 15:02:32,35031,2066
2024-12-18 15:02:32,35031,2065
2024-12-18 15:02:32,35032,2063
2024-12-18 15:02:32,35031,2061
2024-12-18 15:02:32,35031,2059
2024-12-18 15:02:32,35031,2058
2024-12-18 15:02:32,35031,2056
2024-12-18 15:02:32,35032,2056
2024-12-18 15:02:32,35031,2055
2024-12-18 15:02:32,35032,2055
2024-12-18 15:02:32,35032,2054
2024-12-18 15:02:32,35032,2053
2024-12-18 15:02:32,35031,2053
2024-12-18 15:02:32,35031,2052
2024-12-18 15:02:32,35032,2052
2024-12-18 15:02:32,35034,2054
2024-12-18 15:02:32,35032,2053
2024-12-18 15:02:32,35032,2050
2024-12-18 15:02:32,35032,2049
2024-12-18 15:02:32,35032,2048
2024-12-18 15:02:32,35031,2046
2024-12-18 15:02:32,35030,2046
2024-12-18 15:02:32,35031,2044
2024-12-18 15:02:32,35031,2043
2024-12-18 15:02:32,35031,2040
2024-12-18 15:02:32,35031,2038
2024-12-18 15:02:32,35032,2036
2024-12-18 15:02:32,35032,2034
2024-12-18 15:02:32,35032,2032
2024-12-18 15:02:32,35032,2029
2024-12-18 15:02:32,35032,2027
2024-12-18 15:02:32,35032,2025
2024-12-18 15:02:32,35032,2023
2024-12-18 15:02:32,35032,2022
2024-12-18 15:02:32,35032,2019
2024-12-18 15:02:32,35033,2018
2024-12-18 15:02:32,35032,2017
2024-12-18 15:02:32,35032,2015
2024-12-18 15:02:32,35032,2014
2024-12-18 15:02:32,35032,2014
2024-12-18 15:02:32,35032,2014
2024-12-18 15:02:32,35033,2016
2024-12-18 15:02:32,35034,2012
2024-12-18 15:02:32,35032,2010
2024-12-18 15:02:32,35032,2009
2024-12-18 15:02:32,35033,2007
2024-12-18 15:02:32,35031,2005
2024-12-18 15:02:32,35031,2004
2024-12-18 15:02:32,35031,2002
2024-12-18 15:02:32,35031,2000
2024-12-18 15:02:32,35031,1999
2024-12-18 15:02:32,35031,1998
2024-12-18 15:02:32,35032,1999
2024-12-18 15:02:32,35032,1998
2024-12-18 15:02:32,35032,1998
2024-12-18 15:02:32,35031,1998
2024-12-18 15:02:32,35032,1998
2024-12-18 15:02:32,35032,1999
2024-12-18 15:02:32,35032,1999
2024-12-18 15:02:32,35032,2000
2024-12-18 15:02:32,35032,2000
2024-12-18 15:02:32,35033,2000
2024-12-18 15:02:32,35033,2001
2024-12-18 15:02:32,35032,2001
2024-12-18 15:02:32,35032,2002
2024-12-18 15:02:32,35033,2002
2024-12-18 15:02:32,35033,2001
2024-12-18 15:02:32,35035,2003
2024-12-18 15:02:32,35034,2001
2024-12-18 15:02:32,35034,2000
2024-12-18 15:02:32,35034,2000
2024-12-18 15:02:32,35033,1999
2024-12-18 15:02:32,35032,1998
2024-12-18 15:02:32,35032,1997
2024-12-18 15:02:32,35032,1996
2024-12-18 15:02:32,35032,1995
2024-12-18 15:02:32,35033,1993
2024-12-18 15:02:32,35033,1992
2024-12-18 15:02:32,35033,1990
2024-12-18 15:02:32,35034,1987
2024-12-18 15:02:32,35033,1984
2024-12-18 15:02:32,35033,1982
2024-12-18 15:02:32,35033,1980
2024-12-18 15:02:32,35033,1977
2024-12-18 15:02:32,35033,1975
2024-12-18 15:02:32,35033,1974
2024-12-18 15:02:32,35033,1972
2024-12-18 15:02:32,35034,1971
2024-12-18 15:02:32,35033,1971
2024-12-18 15:02:32,35033,1971
2024-12-18 15:02:32,35033,1970
2024-12-18 15:02:32,35034,1972
2024-12-18 15:02:32,35034,1973
2024-12-18 15:02:32,35035,1977
2024-12-18 15:02:32,35033,1978
2024-12-18 15:02:32,35034,1978
2024-12-18 15:02:32,35034,1981
2024-12-18 15:02:32,35033,1983
2024-12-18 15:02:32,35032,1984
2024-12-18 15:02:32,35032,1987
2024-12-18 15:02:32,35032,1989
2024-12-18 15:02:32,35033,1991
2024-12-18 15:02:32,35033,1992
2024-12-18 15:02:32,35033,1994
2024-12-18 15:02:32,35034,1995
2024-12-18 15:02:32,35033,1996
2024-12-18 15:02:32,35033,1997
2024-12-18 15:02:32,35033,1998
2024-12-18 15:02:32,35033,1999
2024-12-18 15:02:32,35034,2001
2024-12-18 15:02:32,35034,2002
2024-12-18 15:02:32,35033,2002
2024-12-18 15:02:32,35034,2002
2024-12-18 15:02:32,35034,2003
2024-12-18 15:02:32,35033,2002
2024-12-18 15:02:32,35033,2003
2024-12-18 15:02:32,35033,2003
2024-12-18 15:02:32,35034,2003
2024-12-18 15:02:32,35033,2003
2024-12-18 15:02:32,35035,2009
2024-12-18 15:02:32,35036,2008
2024-12-18 15:02:32,35034,2006
2024-12-18 15:02:32,35034,2006
2024-12-18 15:02:32,35033,2006
2024-12-18 15:02:32,35032,2005
2024-12-18 15:02:32,35033,2005
2024-12-18 15:02:32,35033,2006
2024-12-18 15:02:32,35033,2007
2024-12-18 15:02:32,35033,2008
2024-12-18 15:02:32,35033,2008
2024-12-18 15:02:32,35034,2008
2024-12-18 15:02:32,35033,2009
2024-12-18 15:02:32,35033,2009
2024-12-18 15:02:32,35033,2009
2024-12-18 15:02:32,35033,2008
2024-12-18 15:02:32,35033,2007
2024-12-18 15:02:32,35033,2006
2024-12-18 15:02:32,35033,2006
2024-12-18 15:02:32,35034,2006
2024-12-18 15:02:32,35034,2004
2024-12-18 15:02:32,35033,2004
2024-12-18 15:02:32,35033,2003
2024-12-18 15:02:32,35033,2002
2024-12-18 15:02:32,35033,2000
2024-12-18 15:02:32,35033,1998
2024-12-18 15:02:32,35035,2000
2024-12-18 15:02:32,35039,1998
2024-12-18 15:02:32,35034,1995
2024-12-18 15:02:32,35033,1994
2024-12-18 15:02:32,35033,1993
2024-12-18 15:02:32,35032,1992
2024-12-18 15:02:32,35032,1990
2024-12-18 15:02:32,35032,1987
2024-12-18 15:02:32,35032,1985
2024-12-18 15:02:32,35032,1983
2024-12-18 15:02:32,35033,1982
2024-12-18 15:02:32,35033,1980
2024-12-18 15:02:32,35032,1977
2024-12-18 15:02:32,35033,1974
2024-12-18 15:02:32,35033,1972
2024-12-18 15:02:32,35033,1969
2024-12-18 15:02:32,35033,1966
2024-12-18 15:02:32,35033,1964
2024-12-18 15:02:32,35033,1962
2024-12-18 15:02:32,35034,1959
2024-12-18 15:02:32,35033,1956
2024-12-18 15:02:32,35033,1955
2024-12-18 15:02:32,35033,1954
2024-12-18 15:02:32,35033,1953
2024-12-18 15:02:32,35033,1953
2024-12-18 15:02:32,35033,1950
2024-12-18 15:02:32,35034,1953
2024-12-18 15:02:32,35035,1949
2024-12-18 15:02:32,35034,1947
2024-12-18 15:02:32,35033,1944
2024-12-18 15:02:32,35033,1943
2024-12-18 15:02:32,35032,1941
2024-12-18 15:02:32,35032,1941
2024-12-18 15:02:32,35032,1939
2024-12-18 15:02:32,35032,1938
2024-12-18 15:02:32,35032,1937
2024-12-18 15:02:32,35033,1937
2024-12-18 15:02:32,35032,1935
2024-12-18 15:02:32,35032,1935
2024-12-18 15:02:32,35032,1933
2024-12-18 15:02:32,35032,1933
2024-12-18 15:02:32,35033,1932
2024-12-18 15:02:32,35032,1931
2024-12-18 15:02:32,35032,1930
2024-12-18 15:02:32,35033,1930
2024-12-18 15:02:32,35033,1929
2024-12-18 15:02:32,35032,1928
2024-12-18 15:02:32,35032,1927
2024-12-18 15:02:32,35032,1927
2024-12-18 15:02:32,35033,1926
2024-12-18 15:02:32,35033,1926
2024-12-18 15:02:32,35032,1925
2024-12-18 15:02:32,35033,1928
2024-12-18 15:02:32,35035,1926
2024-12-18 15:02:32,35033,1924
2024-12-18 15:02:32,35032,1923
2024-12-18 15:02:32,35033,1924
2024-12-18 15:02:32,35032,1924
2024-12-18 15:02:32,35031,1924
2024-12-18 15:02:32,35032,1925
2024-12-18 15:02:32,35032,1926
2024-12-18 15:02:32,35032,1928
2024-12-18 15:02:32,35032,1929
2024-12-18 15:02:32,35032,1930
2024-12-18 15:02:32,35032,1931
2024-12-18 15:02:32,35032,1934
2024-12-18 15:02:32,35032,1935
2024-12-18 15:02:32,35032,1937
2024-12-18 15:02:32,35032,1938
2024-12-18 15:02:32,35032,1939
2024-12-18 15:02:32,35032,1940
2024-12-18 15:02:32,35033,1941
2024-12-18 15:02:32,35032,1942
2024-12-18 15:02:32,35032,1942
2024-12-18 15:02:32,35032,1943
2024-12-18 15:02:32,35033,1944
2024-12-18 15:02:32,35032,1944
2024-12-18 15:02:32,35033,1944
2024-12-18 15:02:32,35035,1948
2024-12-18 15:02:32,35035,1946
2024-12-18 15:02:32,35032,1946
2024-12-18 15:02:32,35032,1946
2024-12-18 15:02:32,35032,1946
2024-12-18 15:02:32,35032,1945
2024-12-18 15:02:32,35032,1945
2024-12-18 15:02:32,35032,1945
2024-12-18 15:02:32,35032,1944
2024-12-18 15:02:32,35032,1945
2024-12-18 15:02:32,35032,1944
2024-12-18 15:02:32,35032,1944
2024-12-18 15:02:32,35032,1944
2024-12-18 15:02:32,35032,1943
2024-12-18 15:02:32,35032,1942
2024-12-18 15:02:32,35032,1942
2024-12-18 15:02:32,35032,1942
2024-12-18 15:02:32,35032,1940
2024-12-18 15:02:32,35033,1938
2024-12-18 15:02:32,35032,1937
2024-12-18 15:02:32,35032,1937
2024-12-18 15:02:32,35032,1936
2024-12-18 15:02:32,35032,1935
2024-12-18 15:02:32,35032,1933
2024-12-18 15:02:32,35032,1932
2024-12-18 15:02:32,35032,1931
2024-12-18 15:02:32,35038,1933
2024-12-18 15:02:32,35034,1931
2024-12-18 15:02:32,35032,1929
2024-12-18 15:02:32,35032,1928
2024-12-18 15:02:32,35032,1928
2024-12-18 15:02:32,35031,1927
2024-12-18 15:02:32,35031,1926
2024-12-18 15:02:32,35031,1926
2024-12-18 15:02:32,35032,1927
2024-12-18 15:02:32,35032,1927
2024-12-18 15:02:32,35031,1927
2024-12-18 15:02:32,35031,1927
2024-12-18 15:02:32,35032,1927
2024-12-18 15:02:32,35032,1927
2024-12-18 15:02:32,35032,1926
2024-12-18 15:02:32,35032,1923
2024-12-18 15:02:32,35032,1922
2024-12-18 15:02:32,35032,1921
2024-12-18 15:02:32,35032,1919
2024-12-18 15:02:32,35032,1918
2024-12-18 15:02:32,35032,1917
2024-12-18 15:02:32,35032,1915
2024-12-18 15:02:32,35032,1913
2024-12-18 15:02:32,35033,1911
2024-12-18 15:02:32,35032,1908
2024-12-18 15:02:32,35033,1906
2024-12-18 15:02:32,35037,1905
2024-12-18 15:02:32,35034,1901
2024-12-18 15:02:32,35033,1899
2024-12-18 15:02:32,35032,1896
2024-12-18 15:02:32,35032,1896
2024-12-18 15:02:32,35032,1893
2024-12-18 15:02:32,35031,1892
2024-12-18 15:02:32,35032,1891
2024-12-18 15:02:32,35032,1891
2024-12-18 15:02:32,35032,1892
2024-12-18 15:02:32,35032,1891
2024-12-18 15:02:32,35032,1891
2024-12-18 15:02:32,35032,1891
2024-12-18 15:02:32,35032,1891
2024-12-18 15:02:32,35032,1890
2024-12-18 15:02:32,35032,1890
2024-12-18 15:02:32,35032,1890
2024-12-18 15:02:32,35032,1889
2024-12-18 15:02:32,35032,1889
2024-12-18 15:02:32,35032,1889
2024-12-18 15:02:32,35032,1889
2024-12-18 15:02:32,35032,1888
2024-12-18 15:02:32,35032,1888
2024-12-18 15:02:32,35032,1888
2024-12-18 15:02:32,35032,1889
2024-12-18 15:02:32,35032,1889
2024-12-18 15:02:32,35038,1891
2024-12-18 15:02:32,35035,1891
2024-12-18 15:02:32,35032,1889
2024-12-18 15:02:32,35032,1890
2024-12-18 15:02:32,35032,1890
2024-12-18 15:02:32,35031,1889
2024-12-18 15:02:32,35031,1888
2024-12-18 15:02:32,35032,1888
2024-12-18 15:02:32,35031,1889
2024-12-18 15:02:32,35032,1888
2024-12-18 15:02:32,35031,1889
2024-12-18 15:02:32,35031,1890
2024-12-18 15:02:32,35032,1892
2024-12-18 15:02:32,35032,1893
2024-12-18 15:02:32,35032,1895
2024-12-18 15:02:32,35032,1897
2024-12-18 15:02:32,35032,1899
2024-12-18 15:02:32,35032,1902
2024-12-18 15:02:32,35032,1905
2024-12-18 15:02:32,35032,1909
2024-12-18 15:02:32,35032,1913
2024-12-18 15:02:32,35032,1917
2024-12-18 15:02:33,35032,1922
2024-12-18 15:02:33,35032,1927
2024-12-18 15:02:33,35032,1931
2024-12-18 15:02:33,35032,1936
2024-12-18 15:02:33,35038,1943
2024-12-18 15:02:33,35033,1947
2024-12-18 15:02:33,35032,1952
2024-12-18 15:02:33,35032,1958
2024-12-18 15:02:33,35032,1963
2024-12-18 15:02:33,35031,1968
2024-12-18 15:02:33,35031,1974
2024-12-18 15:02:33,35031,1980
2024-12-18 15:02:33,35031,1986
2024-12-18 15:02:33,35031,1993
2024-12-18 15:02:33,35030,2000
2024-12-18 15:02:33,35031,2006
2024-12-18 15:02:33,35031,2013
2024-12-18 15:02:33,35031,2018
2024-12-18 15:02:33,35031,2024
2024-12-18 15:02:33,35031,2029
2024-12-18 15:02:33,35032,2035
2024-12-18 15:02:33,35032,2039
2024-12-18 15:02:33,35031,2044
2024-12-18 15:02:33,35031,2049
2024-12-18 15:02:33,35031,2053
2024-12-18 15:02:33,35031,2058
2024-12-18 15:02:33,35031,2062
2024-12-18 15:02:33,35031,2067
2024-12-18 15:02:33,35031,2070
2024-12-18 15:02:33,35032,2074
2024-12-18 15:02:33,35033,2079
2024-12-18 15:02:33,35033,2081
2024-12-18 15:02:33,35031,2084
2024-12-18 15:02:33,35032,2087
2024-12-18 15:02:33,35031,2090
2024-12-18 15:02:33,35030,2091
2024-12-18 15:02:33,35030,2094
2024-12-18 15:02:33,35030,2098
2024-12-18 15:02:33,35030,2099
2024-12-18 15:02:33,35030,2100
2024-12-18 15:02:33,35030,2102
2024-12-18 15:02:33,35031,2102
2024-12-18 15:02:33,35031,2103
2024-12-18 15:02:33,35031,2104
2024-12-18 15:02:33,35031,2104
2024-12-18 15:02:33,35031,2104
2024-12-18 15:02:33,35031,2104
2024-12-18 15:02:33,35031,2104
2024-12-18 15:02:33,35031,2103
2024-12-18 15:02:33,35031,2102
2024-12-18 15:02:33,35031,2101
2024-12-18 15:02:33,35031,2099
2024-12-18 15:02:33,35031,2098
2024-12-18 15:02:33,35031,2095
2024-12-18 15:02:33,35031,2093
2024-12-18 15:02:33,35032,2091
2024-12-18 15:02:33,35036,2091
2024-12-18 15:02:33,35033,2087
2024-12-18 15:02:33,35032,2083
2024-12-18 15:02:33,35031,2079
2024-12-18 15:02:33,35031,2076
2024-12-18 15:02:33,35030,2073
2024-12-18 15:02:33,35030,2071
2024-12-18 15:02:33,35030,2068
2024-12-18 15:02:33,35030,2065
2024-12-18 15:02:33,35030,2064
2024-12-18 15:02:33,35030,2062
2024-12-18 15:02:33,35030,2060
2024-12-18 15:02:33,35030,2059
2024-12-18 15:02:33,35030,2058
2024-12-18 15:02:33,35030,2058
2024-12-18 15:02:33,35030,2057
2024-12-18 15:02:33,35030,2057
2024-12-18 15:02:33,35030,2056
2024-12-18 15:02:33,35030,2057
2024-12-18 15:02:33,35030,2057
2024-12-18 15:02:33,35030,2057
2024-12-18 15:02:33,35030,2057
2024-12-18 15:02:33,35030,2056
2024-12-18 15:02:33,35031,2055
2024-12-18 15:02:33,35031,2054
2024-12-18 15:02:33,35030,2054
2024-12-18 15:02:33,35035,2057
2024-12-18 15:02:33,35032,2055
2024-12-18 15:02:33,35031,2054
2024-12-18 15:02:33,35030,2054
2024-12-18 15:02:33,35030,2054
2024-12-18 15:02:33,35029,2053
2024-12-18 15:02:33,35030,2053
2024-12-18 15:02:33,35029,2051
2024-12-18 15:02:33,35029,2050
2024-12-18 15:02:33,35030,2048
2024-12-18 15:02:33,35030,2047
2024-12-18 15:02:33,35030,2046
2024-12-18 15:02:33,35030,2045
2024-12-18 15:02:33,35030,2044
2024-12-18 15:02:33,35031,2043
2024-12-18 15:02:33,35031,2041
2024-12-18 15:02:33,35030,2040
2024-12-18 15:02:33,35030,2039
2024-12-18 15:02:33,35030,2037
2024-12-18 15:02:33,35030,2035
2024-12-18 15:02:33,35031,2033
2024-12-18 15:02:33,35030,2031
2024-12-18 15:02:33,35031,2029
2024-12-18 15:02:33,35031,2027
2024-12-18 15:02:33,35031,2025
2024-12-18 15:02:33,35031,2024
2024-12-18 15:02:33,35034,2024
2024-12-18 15:02:33,35032,2021
2024-12-18 15:02:33,35031,2018
2024-12-18 15:02:33,35031,2016
2024-12-18 15:02:33,35030,2013
2024-12-18 15:02:33,35030,2009
2024-12-18 15:02:33,35030,2005
2024-12-18 15:02:33,35029,2003
2024-12-18 15:02:33,35029,2000
2024-12-18 15:02:33,35029,1998
2024-12-18 15:02:33,35029,1996
2024-12-18 15:02:33,35030,1993
2024-12-18 15:02:33,35029,1991
2024-12-18 15:02:33,35030,1988
2024-12-18 15:02:33,35030,1985
2024-12-18 15:02:33,35030,1984
2024-12-18 15:02:33,35030,1981
2024-12-18 15:02:33,35030,1979
2024-12-18 15:02:33,35030,1977
2024-12-18 15:02:33,35030,1976
2024-12-18 15:02:33,35030,1975
2024-12-18 15:02:33,35030,1974
2024-12-18 15:02:33,35031,1974
2024-12-18 15:02:33,35030,1974
2024-12-18 15:02:33,35030,1973
2024-12-18 15:02:33,35029,1973
2024-12-18 15:02:33,35033,1975
2024-12-18 15:02:33,35031,1975
2024-12-18 15:02:33,35030,1975
2024-12-18 15:02:33,35030,1975
2024-12-18 15:02:33,35030,1976
2024-12-18 15:02:33,35029,1976
2024-12-18 15:02:33,35029,1978
2024-12-18 15:02:33,35028,1978
2024-12-18 15:02:33,35029,1980
2024-12-18 15:02:33,35029,1981
2024-12-18 15:02:33,35029,1981
2024-12-18 15:02:33,35029,1981
2024-12-18 15:02:33,35029,1982
2024-12-18 15:02:33,35030,1982
2024-12-18 15:02:33,35030,1981
2024-12-18 15:02:33,35029,1981
2024-12-18 15:02:33,35029,1982
2024-12-18 15:02:33,35029,1983
2024-12-18 15:02:33,35029,1983
2024-12-18 15:02:33,35030,1983
2024-12-18 15:02:33,35029,1983
2024-12-18 15:02:33,35030,1984
2024-12-18 15:02:33,35030,1985
2024-12-18 15:02:33,35030,1986
2024-12-18 15:02:33,35030,1987
2024-12-18 15:02:33,35030,1989
2024-12-18 15:02:33,35034,1992
2024-12-18 15:02:33,35031,1994
2024-12-18 15:02:33,35030,1994
2024-12-18 15:02:33,35030,1995
2024-12-18 15:02:33,35030,1997
2024-12-18 15:02:33,35029,1997
2024-12-18 15:02:33,35029,1999
2024-12-18 15:02:33,35028,1999
2024-12-18 15:02:33,35028,1999
2024-12-18 15:02:33,35029,2000
2024-12-18 15:02:33,35029,1999
2024-12-18 15:02:33,35029,2000
2024-12-18 15:02:33,35029,2000
2024-12-18 15:02:33,35030,2000
2024-12-18 15:02:33,35029,2000
2024-12-18 15:02:33,35029,2001
2024-12-18 15:02:33,35029,1999
2024-12-18 15:02:33,35030,1999
2024-12-18 15:02:33,35029,1998
2024-12-18 15:02:33,35029,1996
2024-12-18 15:02:33,35029,1996
2024-12-18 15:02:33,35029,1994
2024-12-18 15:02:33,35030,1994
2024-12-18 15:02:33,35030,1993
2024-12-18 15:02:33,35029,1994
2024-12-18 15:02:33,35029,1992
2024-12-18 15:02:33,35032,1993
2024-12-18 15:02:33,35031,1993
2024-12-18 15:02:33,35030,1991
2024-12-18 15:02:33,35029,1990
2024-12-18 15:02:33,35029,1990
2024-12-18 15:02:33,35028,1988
2024-12-18 15:02:33,35027,1987
2024-12-18 15:02:33,35027,1986
2024-12-18 15:02:33,35028,1986
2024-12-18 15:02:33,35028,1985
2024-12-18 15:02:33,35028,1983
2024-12-18 15:02:33,35028,1984
2024-12-18 15:02:33,35028,1983
2024-12-18 15:02:33,35028,1983
2024-12-18 15:02:33,35028,1981
2024-12-18 15:02:33,35028,1980
2024-12-18 15:02:33,35028,1980
2024-12-18 15:02:33,35028,1979
2024-12-18 15:02:33,35028,1978
2024-12-18 15:02:33,35028,1976
2024-12-18 15:02:33,35028,1975
2024-12-18 15:02:33,35029,1974
2024-12-18 15:02:33,35029,1974
2024-12-18 15:02:33,35029,1971
2024-12-18 15:02:33,35028,1970
2024-12-18 15:02:33,35028,1969
2024-12-18 15:02:33,35031,1970
2024-12-18 15:02:33,35030,1970
2024-12-18 15:02:33,35030,1969
2024-12-18 15:02:33,35028,1968
2024-12-18 15:02:33,35029,1968
2024-12-18 15:02:33,35027,1967
2024-12-18 15:02:33,35027,1967
2024-12-18 15:02:33,35027,1967
2024-12-18 15:02:33,35027,1968
2024-12-18 15:02:33,35027,1968
2024-12-18 15:02:33,35027,1967
2024-12-18 15:02:33,35027,1968
2024-12-18 15:02:33,35027,1968
2024-12-18 15:02:33,35028,1968
2024-12-18 15:02:33,35027,1968
2024-12-18 15:02:33,35028,1968
2024-12-18 15:02:33,35028,1968
2024-12-18 15:02:33,35028,1968
2024-12-18 15:02:33,35028,1968
2024-12-18 15:02:33,35027,1968
2024-12-18 15:02:33,35028,1969
2024-12-18 15:02:33,35028,1969
2024-12-18 15:02:33,35028,1969
2024-12-18 15:02:33,35027,1968
2024-12-18 15:02:33,35028,1967
2024-12-18 15:02:33,35027,1966
2024-12-18 15:02:33,35030,1965
2024-12-18 15:02:33,35029,1964
2024-12-18 15:02:33,35028,1961
2024-12-18 15:02:33,35028,1959
2024-12-18 15:02:33,35028,1958
2024-12-18 15:02:33,35026,1955
2024-12-18 15:02:33,35026,1954
2024-12-18 15:02:33,35026,1952
2024-12-18 15:02:33,35026,1950
2024-12-18 15:02:33,35027,1948
2024-12-18 15:02:33,35026,1946
2024-12-18 15:02:33,35027,1945
2024-12-18 15:02:33,35027,1943
2024-12-18 15:02:33,35027,1941
2024-12-18 15:02:33,35026,1938
2024-12-18 15:02:33,35027,1938
2024-12-18 15:02:33,35027,1936
2024-12-18 15:02:33,35027,1935
2024-12-18 15:02:33,35027,1933
2024-12-18 15:02:33,35027,1931
2024-12-18 15:02:33,35027,1930
2024-12-18 15:02:33,35027,1928
2024-12-18 15:02:33,35027,1927
2024-12-18 15:02:33,35027,1925
2024-12-18 15:02:33,35027,1924
2024-12-18 15:02:33,35026,1924
2024-12-18 15:02:33,35026,1922
2024-12-18 15:02:33,35026,1921
2024-12-18 15:02:33,35027,1919
2024-12-18 15:02:33,35027,1919
2024-12-18 15:02:33,35027,1918
2024-12-18 15:02:33,35027,1916
2024-12-18 15:02:33,35027,1916
2024-12-18 15:02:33,35027,1915
2024-12-18 15:02:33,35027,1913
2024-12-18 15:02:33,35027,1912
2024-12-18 15:02:33,35027,1912
2024-12-18 15:02:33,35027,1911
2024-12-18 15:02:33,35027,1911
2024-12-18 15:02:33,35027,1911
2024-12-18 15:02:33,35026,1911
2024-12-18 15:02:33,35027,1912
2024-12-18 15:02:33,35027,1912
2024-12-18 15:02:33,35027,1913
2024-12-18 15:02:33,35027,1912
2024-12-18 15:02:33,35026,1912
2024-12-18 15:02:33,35026,1912
2024-12-18 15:02:33,35027,1912
2024-12-18 15:02:33,35026,1912
2024-12-18 15:02:33,35026,1913
2024-12-18 15:02:33,35026,1913
2024-12-18 15:02:33,35027,1913
2024-12-18 15:02:33,35033,1915
2024-12-18 15:02:33,35028,1915
2024-12-18 15:02:33,35027,1913
2024-12-18 15:02:33,35027,1913
2024-12-18 15:02:33,35026,1913
2024-12-18 15:02:33,35025,1911
2024-12-18 15:02:33,35025,1911
2024-12-18 15:02:33,35025,1910
2024-12-18 15:02:33,35025,1910
2024-12-18 15:02:33,35025,1909
2024-12-18 15:02:33,35026,1908
2024-12-18 15:02:33,35026,1907
2024-12-18 15:02:33,35026,1905
2024-12-18 15:02:33,35026,1904
2024-12-18 15:02:33,35025,1901
2024-12-18 15:02:33,35025,1901
2024-12-18 15:02:33,35026,1900
2024-12-18 15:02:33,35025,1899
2024-12-18 15:02:33,35026,1898
2024-12-18 15:02:33,35026,1897
2024-12-18 15:02:33,35026,1897
2024-12-18 15:02:33,35026,1896
2024-12-18 15:02:33,35025,1895
2024-12-18 15:02:33,35026,1895
2024-12-18 15:02:33,35025,1895
2024-12-18 15:02:33,35026,1895
2024-12-18 15:02:33,35028,1897
2024-12-18 15:02:33,35027,1898
2024-12-18 15:02:33,35026,1896
2024-12-18 15:02:33,35026,1896
2024-12-18 15:02:33,35025,1895
2024-12-18 15:02:33,35024,1893
2024-12-18 15:02:33,35024,1892
2024-12-18 15:02:33,35024,1892
2024-12-18 15:02:33,35024,1890
2024-12-18 15:02:33,35024,1889
2024-12-18 15:02:33,35024,1888
2024-12-18 15:02:33,35024,1887
2024-12-18 15:02:33,35024,1887
2024-12-18 15:02:33,35024,1887
2024-12-18 15:02:33,35024,1887
2024-12-18 15:02:33,35024,1888
2024-12-18 15:02:33,35024,1888
2024-12-18 15:02:33,35024,1888
2024-12-18 15:02:33,35024,1888
2024-12-18 15:02:33,35024,1889
2024-12-18 15:02:33,35024,1890
2024-12-18 15:02:33,35024,1890
2024-12-18 15:02:33,35023,1890
2024-12-18 15:02:33,35024,1890
2024-12-18 15:02:33,35024,1891
2024-12-18 15:02:33,35024,1891
2024-12-18 15:02:33,35027,1893
2024-12-18 15:02:33,35025,1896
2024-12-18 15:02:33,35024,1892
2024-12-18 15:02:33,35024,1892
2024-12-18 15:02:33,35023,1892
2024-12-18 15:02:33,35022,1893
2024-12-18 15:02:33,35023,1892
2024-12-18 15:02:33,35022,1892
2024-12-18 15:02:33,35022,1892
2024-12-18 15:02:33,35022,1891
2024-12-18 15:02:33,35023,1892
2024-12-18 15:02:33,35023,1893
2024-12-18 15:02:33,35022,1893
2024-12-18 15:02:33,35022,1893
2024-12-18 15:02:33,35022,1894
2024-12-18 15:02:33,35023,1893
2024-12-18 15:02:33,35023,1894
2024-12-18 15:02:33,35022,1894
2024-12-18 15:02:33,35022,1895
2024-12-18 15:02:33,35023,1895
2024-12-18 15:02:33,35023,1895
2024-12-18 15:02:33,35022,1895
2024-12-18 15:02:33,35022,1896
2024-12-18 15:02:33,35022,1897
2024-12-18 15:02:33,35022,1898
2024-12-18 15:02:33,35022,1897
2024-12-18 15:02:33,35024,1902
2024-12-18 15:02:33,35025,1901
2024-12-18 15:02:33,35022,1899
2024-12-18 15:02:33,35022,1900
2024-12-18 15:02:33,35022,1900
2024-12-18 15:02:33,35021,1899
2024-12-18 15:02:33,35021,1899
2024-12-18 15:02:33,35021,1900
2024-12-18 15:02:33,35020,1901
2024-12-18 15:02:33,35021,1903
2024-12-18 15:02:33,35021,1904
2024-12-18 15:02:33,35021,1905
2024-12-18 15:02:33,35020,1906
2024-12-18 15:02:33,35020,1908
2024-12-18 15:02:33,35021,1910
2024-12-18 15:02:33,35021,1912
2024-12-18 15:02:33,35021,1915
2024-12-18 15:02:33,35021,1919
2024-12-18 15:02:33,35021,1921
2024-12-18 15:02:33,35021,1925
2024-12-18 15:02:33,35021,1929
2024-12-18 15:02:33,35020,1933
2024-12-18 15:02:33,35021,1936
2024-12-18 15:02:33,35021,1940
2024-12-18 15:02:33,35021,1944
2024-12-18 15:02:33,35020,1948
2024-12-18 15:02:33,35024,1952
2024-12-18 15:02:33,35022,1956
2024-12-18 15:02:33,35021,1961
2024-12-18 15:02:33,35020,1965
2024-12-18 15:02:33,35020,1970
2024-12-18 15:02:33,35019,1973
2024-12-18 15:02:33,35020,1978
2024-12-18 15:02:33,35019,1982
2024-12-18 15:02:33,35019,1986
2024-12-18 15:02:33,35020,1991
2024-12-18 15:02:33,35020,1995
2024-12-18 15:02:33,35020,2000
2024-12-18 15:02:33,35020,2004
2024-12-18 15:02:33,35020,2010
2024-12-18 15:02:33,35020,2015
2024-12-18 15:02:33,35020,2021
2024-12-18 15:02:33,35021,2027
2024-12-18 15:02:33,35021,2033
2024-12-18 15:02:33,35021,2038
2024-12-18 15:02:33,35021,2044
2024-12-18 15:02:33,35021,2050
2024-12-18 15:02:33,35020,2055
2024-12-18 15:02:33,35021,2060
2024-12-18 15:02:33,35021,2065
2024-12-18 15:02:33,35021,2070
2024-12-18 15:02:33,35021,2074
2024-12-18 15:02:33,35024,2080
2024-12-18 15:02:33,35023,2083
2024-12-18 15:02:33,35021,2084
2024-12-18 15:02:33,35021,2086
2024-12-18 15:02:33,35021,2088
2024-12-18 15:02:33,35020,2088
2024-12-18 15:02:33,35020,2089
2024-12-18 15:02:33,35021,2090
2024-12-18 15:02:33,35021,2092
2024-12-18 15:02:33,35021,2092
2024-12-18 15:02:33,35021,2092
2024-12-18 15:02:33,35021,2092
2024-12-18 15:02:33,35021,2092
2024-12-18 15:02:33,35021,2092
2024-12-18 15:02:33,35021,2092
2024-12-18 15:02:33,35021,2092
2024-12-18 15:02:33,35021,2092
2024-12-18 15:02:33,35021,2091
2024-12-18 15:02:33,35022,2091
2024-12-18 15:02:33,35022,2091
2024-12-18 15:02:33,35021,2091
2024-12-18 15:02:33,35021,2090
2024-12-18 15:02:33,35022,2089
2024-12-18 15:02:33,35022,2089
2024-12-18 15:02:33,35021,2089
2024-12-18 15:02:33,35021,2089
2024-12-18 15:02:33,35024,2094
2024-12-18 15:02:33,35023,2091
2024-12-18 15:02:33,35022,2089
2024-12-18 15:02:33,35022,2089
2024-12-18 15:02:33,35021,2090
2024-12-18 15:02:33,35020,2089
2024-12-18 15:02:33,35020,2088
2024-12-18 15:02:33,35020,2088
2024-12-18 15:02:33,35021,2088
2024-12-18 15:02:33,35021,2088
2024-12-18 15:02:33,35021,2087
2024-12-18 15:02:33,35021,2086
2024-12-18 15:02:33,35021,2085
2024-12-18 15:02:33,35021,2084
2024-12-18 15:02:33,35021,2082
2024-12-18 15:02:33,35022,2080
2024-12-18 15:02:33,35021,2077
2024-12-18 15:02:33,35022,2076
2024-12-18 15:02:33,35022,2074
2024-12-18 15:02:33,35021,2072
2024-12-18 15:02:33,35022,2070
2024-12-18 15:02:33,35022,2069
2024-12-18 15:02:33,35022,2068
2024-12-18 15:02:33,35022,2066
2024-12-18 15:02:33,35022,2064
2024-12-18 15:02:33,35022,2062
2024-12-18 15:02:33,35024,2066
2024-12-18 15:02:33,35023,2062
2024-12-18 15:02:33,35022,2058
2024-12-18 15:02:33,35022,2056
2024-12-18 15:02:33,35022,2054
2024-12-18 15:02:33,35021,2049
2024-12-18 15:02:33,35021,2046
2024-12-18 15:02:33,35021,2043
2024-12-18 15:02:33,35021,2039
2024-12-18 15:02:33,35021,2036
2024-12-18 15:02:33,35021,2032
2024-12-18 15:02:33,35022,2028
2024-12-18 15:02:33,35021,2024
2024-12-18 15:02:33,35022,2020
2024-12-18 15:02:33,35022,2017
2024-12-18 15:02:33,35021,2012
2024-12-18 15:02:33,35022,2009
2024-12-18 15:02:33,35022,2005
2024-12-18 15:02:33,35022,2002
2024-12-18 15:02:33,35021,1998
2024-12-18 15:02:33,35021,1994
2024-12-18 15:02:33,35022,1991
2024-12-18 15:02:33,35022,1989
2024-12-18 15:02:33,35021,1987
2024-12-18 15:02:33,35021,1984
2024-12-18 15:02:33,35021,1983
2024-12-18 15:02:33,35023,1984
2024-12-18 15:02:33,35025,1982
2024-12-18 15:02:33,35022,1979
2024-12-18 15:02:33,35022,1977
2024-12-18 15:02:33,35021,1975
2024-12-18 15:02:33,35021,1974
2024-12-18 15:02:33,35021,1971
2024-12-18 15:02:33,35020,1969
2024-12-18 15:02:33,35020,1967
2024-12-18 15:02:33,35020,1966
2024-12-18 15:02:33,35020,1964
2024-12-18 15:02:33,35020,1962
2024-12-18 15:02:33,35020,1960
2024-12-18 15:02:33,35020,1958
2024-12-18 15:02:34,35020,1955
2024-12-18 15:02:34,35019,1953
2024-12-18 15:02:34,35020,1952
2024-12-18 15:02:34,35019,1950
2024-12-18 15:02:34,35019,1948
2024-12-18 15:02:34,35018,1945
2024-12-18 15:02:34,35018,1943
2024-12-18 15:02:34,35018,1942
2024-12-18 15:02:34,35018,1942
2024-12-18 15:02:34,35018,1940
2024-12-18 15:02:34,35018,1940
2024-12-18 15:02:34,35018,1940
2024-12-18 15:02:34,35019,1946
2024-12-18 15:02:34,35021,1944
2024-12-18 15:02:34,35017,1942
2024-12-18 15:02:34,35017,1942
2024-12-18 15:02:34,35017,1944
2024-12-18 15:02:34,35016,1943
2024-12-18 15:02:34,35016,1944
2024-12-18 15:02:34,35016,1945
2024-12-18 15:02:34,35016,1947
2024-12-18 15:02:34,35016,1948
2024-12-18 15:02:34,35015,1951
2024-12-18 15:02:34,35015,1954
2024-12-18 15:02:34,35015,1955
2024-12-18 15:02:34,35015,1956
2024-12-18 15:02:34,35015,1958
2024-12-18 15:02:34,35016,1960
2024-12-18 15:02:34,35016,1962
2024-12-18 15:02:34,35015,1963
2024-12-18 15:02:34,35015,1965
2024-12-18 15:02:34,35015,1966
2024-12-18 15:02:34,35015,1967
2024-12-18 15:02:34,35015,1968
2024-12-18 15:02:34,35015,1969
2024-12-18 15:02:34,35015,1970
2024-12-18 15:02:34,35015,1971
2024-12-18 15:02:34,35015,1972
2024-12-18 15:02:34,35016,1975
2024-12-18 15:02:34,35019,1974
2024-12-18 15:02:34,35015,1973
2024-12-18 15:02:34,35015,1973
2024-12-18 15:02:34,35014,1972
2024-12-18 15:02:34,35014,1972
2024-12-18 15:02:34,35014,1971
2024-12-18 15:02:34,35014,1970
2024-12-18 15:02:34,35014,1970
2024-12-18 15:02:34,35014,1969
2024-12-18 15:02:34,35013,1967
2024-12-18 15:02:34,35013,1967
2024-12-18 15:02:34,35014,1967
2024-12-18 15:02:34,35014,1966
2024-12-18 15:02:34,35014,1966
2024-12-18 15:02:34,35014,1966
2024-12-18 15:02:34,35014,1966
2024-12-18 15:02:34,35014,1965
2024-12-18 15:02:34,35014,1966
2024-12-18 15:02:34,35014,1966
2024-12-18 15:02:34,35014,1965
2024-12-18 15:02:34,35014,1965
2024-12-18 15:02:34,35014,1965
2024-12-18 15:02:34,35014,1964
2024-12-18 15:02:34,35014,1965
2024-12-18 15:02:34,35014,1964
2024-12-18 15:02:34,35019,1967
2024-12-18 15:02:34,35016,1967
2024-12-18 15:02:34,35014,1967
2024-12-18 15:02:34,35014,1967
2024-12-18 15:02:34,35013,1967
2024-12-18 15:02:34,35012,1967
2024-12-18 15:02:34,35012,1967
2024-12-18 15:02:34,35013,1968
2024-12-18 15:02:34,35013,1968
2024-12-18 15:02:34,35012,1968
2024-12-18 15:02:34,35012,1969
2024-12-18 15:02:34,35013,1970
2024-12-18 15:02:34,35013,1970
2024-12-18 15:02:34,35013,1970
2024-12-18 15:02:34,35013,1971
2024-12-18 15:02:34,35013,1971
2024-12-18 15:02:34,35013,1971
2024-12-18 15:02:34,35013,1972
2024-12-18 15:02:34,35013,1972
2024-12-18 15:02:34,35013,1973
2024-12-18 15:02:34,35013,1973
2024-12-18 15:02:34,35013,1973
2024-12-18 15:02:34,35013,1973
2024-12-18 15:02:34,35013,1972
2024-12-18 15:02:34,35013,1972
2024-12-18 15:02:34,35013,1971
2024-12-18 15:02:34,35014,1975
2024-12-18 15:02:34,35015,1972
2024-12-18 15:02:34,35014,1970
2024-12-18 15:02:34,35014,1969
2024-12-18 15:02:34,35013,1968
2024-12-18 15:02:34,35012,1966
2024-12-18 15:02:34,35012,1964
2024-12-18 15:02:34,35013,1963
2024-12-18 15:02:34,35012,1962
2024-12-18 15:02:34,35012,1961
2024-12-18 15:02:34,35013,1961
2024-12-18 15:02:34,35013,1960
2024-12-18 15:02:34,35013,1958
2024-12-18 15:02:34,35013,1958
2024-12-18 15:02:34,35013,1957
2024-12-18 15:02:34,35014,1955
2024-12-18 15:02:34,35014,1955
2024-12-18 15:02:34,35013,1955
2024-12-18 15:02:34,35014,1954
2024-12-18 15:02:34,35014,1953
2024-12-18 15:02:34,35013,1952
2024-12-18 15:02:34,35014,1953
2024-12-18 15:02:34,35013,1953
2024-12-18 15:02:34,35014,1953
2024-12-18 15:02:34,35015,1953
2024-12-18 15:02:34,35014,1952
2024-12-18 15:02:34,35014,1954
2024-12-18 15:02:34,35016,1954
2024-12-18 15:02:34,35015,1952
2024-12-18 15:02:34,35014,1952
2024-12-18 15:02:34,35015,1953
2024-12-18 15:02:34,35013,1953
2024-12-18 15:02:34,35014,1954
2024-12-18 15:02:34,35014,1954
2024-12-18 15:02:34,35014,1955
2024-12-18 15:02:34,35014,1957
2024-12-18 15:02:34,35014,1957
2024-12-18 15:02:34,35014,1957
2024-12-18 15:02:34,35014,1958
2024-12-18 15:02:34,35015,1957
2024-12-18 15:02:34,35015,1956
2024-12-18 15:02:34,35015,1954
2024-12-18 15:02:34,35015,1954
2024-12-18 15:02:34,35015,1951
2024-12-18 15:02:34,35015,1950
2024-12-18 15:02:34,35015,1949
2024-12-18 15:02:34,35015,1946
2024-12-18 15:02:34,35015,1944
2024-12-18 15:02:34,35015,1942
2024-12-18 15:02:34,35015,1940
2024-12-18 15:02:34,35015,1938
2024-12-18 15:02:34,35015,1936
2024-12-18 15:02:34,35020,1937
2024-12-18 15:02:34,35018,1932
2024-12-18 15:02:34,35015,1929
2024-12-18 15:02:34,35015,1925
2024-12-18 15:02:34,35015,1923
2024-12-18 15:02:34,35014,1920
2024-12-18 15:02:34,35014,1917
2024-12-18 15:02:34,35014,1916
2024-12-18 15:02:34,35015,1915
2024-12-18 15:02:34,35015,1913
2024-12-18 15:02:34,35015,1910
2024-12-18 15:02:34,35015,1909
2024-12-18 15:02:34,35015,1907
2024-12-18 15:02:34,35016,1906
2024-12-18 15:02:34,35016,1905
2024-12-18 15:02:34,35016,1904
2024-12-18 15:02:34,35016,1904
2024-12-18 15:02:34,35016,1904
2024-12-18 15:02:34,35016,1904
2024-12-18 15:02:34,35016,1903
2024-12-18 15:02:34,35016,1901
2024-12-18 15:02:34,35016,1900
2024-12-18 15:02:34,35017,1901
2024-12-18 15:02:34,35017,1899
2024-12-18 15:02:34,35017,1898
2024-12-18 15:02:34,35016,1897
2024-12-18 15:02:34,35022,1901
2024-12-18 15:02:34,35020,1897
2024-12-18 15:02:34,35017,1897
2024-12-18 15:02:34,35016,1896
2024-12-18 15:02:34,35016,1896
2024-12-18 15:02:34,35016,1897
2024-12-18 15:02:34,35016,1897
2024-12-18 15:02:34,35016,1898
2024-12-18 15:02:34,35016,1899
2024-12-18 15:02:34,35016,1899
2024-12-18 15:02:34,35016,1900
2024-12-18 15:02:34,35016,1902
2024-12-18 15:02:34,35016,1902
2024-12-18 15:02:34,35016,1904
2024-12-18 15:02:34,35016,1904
2024-12-18 15:02:34,35016,1905
2024-12-18 15:02:34,35016,1905
2024-12-18 15:02:34,35016,1907
2024-12-18 15:02:34,35016,1907
2024-12-18 15:02:34,35016,1908
2024-12-18 15:02:34,35016,1908
2024-12-18 15:02:34,35016,1908
2024-12-18 15:02:34,35016,1909
2024-12-18 15:02:34,35016,1908
2024-12-18 15:02:34,35016,1908
2024-12-18 15:02:34,35016,1908
2024-12-18 15:02:34,35018,1911
2024-12-18 15:02:34,35020,1909
2024-12-18 15:02:34,35016,1909
2024-12-18 15:02:34,35016,1907
2024-12-18 15:02:34,35016,1907
2024-12-18 15:02:34,35015,1906
2024-12-18 15:02:34,35015,1905
2024-12-18 15:02:34,35015,1903
2024-12-18 15:02:34,35015,1903
2024-12-18 15:02:34,35015,1902
2024-12-18 15:02:34,35015,1900
2024-12-18 15:02:34,35015,1897
2024-12-18 15:02:34,35015,1894
2024-12-18 15:02:34,35015,1892
2024-12-18 15:02:34,35015,1890
2024-12-18 15:02:34,35015,1888
2024-12-18 15:02:34,35015,1886
2024-12-18 15:02:34,35015,1886
2024-12-18 15:02:34,35015,1885
2024-12-18 15:02:34,35015,1882
2024-12-18 15:02:34,35015,1882
2024-12-18 15:02:34,35014,1881
2024-12-18 15:02:34,35014,1880
2024-12-18 15:02:34,35013,1880
2024-12-18 15:02:34,35013,1880
2024-12-18 15:02:34,35013,1879
2024-12-18 15:02:34,35018,1882
2024-12-18 15:02:34,35015,1881
2024-12-18 15:02:34,35012,1882
2024-12-18 15:02:34,35012,1882
2024-12-18 15:02:34,35012,1883
2024-12-18 15:02:34,35010,1883
2024-12-18 15:02:34,35010,1883
2024-12-18 15:02:34,35009,1884
2024-12-18 15:02:34,35010,1884
2024-12-18 15:02:34,35010,1883
2024-12-18 15:02:34,35009,1883
2024-12-18 15:02:34,35009,1882
2024-12-18 15:02:34,35009,1881
2024-12-18 15:02:34,35009,1881
2024-12-18 15:02:34,35009,1881
2024-12-18 15:02:34,35008,1881
2024-12-18 15:02:34,35008,1881
2024-12-18 15:02:34,35008,1880
2024-12-18 15:02:34,35008,1880
2024-12-18 15:02:34,35008,1880
2024-12-18 15:02:34,35008,1881
2024-12-18 15:02:34,35008,1880
2024-12-18 15:02:34,35008,1880
2024-12-18 15:02:34,35008,1880
2024-12-18 15:02:34,35008,1880
2024-12-18 15:02:34,35008,1880
2024-12-18 15:02:34,35012,1883
2024-12-18 15:02:34,35010,1881
2024-12-18 15:02:34,35008,1880
2024-12-18 15:02:34,35008,1880
2024-12-18 15:02:34,35008,1879
2024-12-18 15:02:34,35007,1878
2024-12-18 15:02:34,35007,1876
2024-12-18 15:02:34,35007,1876
2024-12-18 15:02:34,35007,1875
2024-12-18 15:02:34,35007,1874
2024-12-18 15:02:34,35008,1874
2024-12-18 15:02:34,35007,1873
2024-12-18 15:02:34,35008,1874
2024-12-18 15:02:34,35008,1874
2024-12-18 15:02:34,35007,1873
2024-12-18 15:02:34,35007,1874
2024-12-18 15:02:34,35008,1874
2024-12-18 15:02:34,35008,1875
2024-12-18 15:02:34,35008,1877
2024-12-18 15:02:34,35008,1878
2024-12-18 15:02:34,35008,1879
2024-12-18 15:02:34,35008,1881
2024-12-18 15:02:34,35008,1884
2024-12-18 15:02:34,35008,1886
2024-12-18 15:02:34,35008,1889
2024-12-18 15:02:34,35008,1893
2024-12-18 15:02:34,35011,1899
2024-12-18 15:02:34,35009,1902
2024-12-18 15:02:34,35008,1906
2024-12-18 15:02:34,35008,1910
2024-12-18 15:02:34,35008,1915
2024-12-18 15:02:34,35007,1919
2024-12-18 15:02:34,35006,1924
2024-12-18 15:02:34,35006,1929
2024-12-18 15:02:34,35006,1934
2024-12-18 15:02:34,35007,1940
2024-12-18 15:02:34,35007,1945
2024-12-18 15:02:34,35007,1951
2024-12-18 15:02:34,35007,1957
2024-12-18 15:02:34,35007,1963
2024-12-18 15:02:34,35007,1969
2024-12-18 15:02:34,35007,1975
2024-12-18 15:02:34,35007,1982
2024-12-18 15:02:34,35008,1988
2024-12-18 15:02:34,35008,1993
2024-12-18 15:02:34,35008,1999
2024-12-18 15:02:34,35009,2004
2024-12-18 15:02:34,35009,2010
2024-12-18 15:02:34,35009,2015
2024-12-18 15:02:34,35009,2019
2024-12-18 15:02:34,35009,2024
2024-12-18 15:02:34,35010,2028
2024-12-18 15:02:34,35015,2036
2024-12-18 15:02:34,35011,2039
2024-12-18 15:02:34,35010,2042
2024-12-18 15:02:34,35010,2045
2024-12-18 15:02:34,35010,2049
2024-12-18 15:02:34,35008,2051
2024-12-18 15:02:34,35008,2054
2024-12-18 15:02:34,35009,2057
2024-12-18 15:02:34,35009,2059
2024-12-18 15:02:34,35009,2062
2024-12-18 15:02:34,35009,2063
2024-12-18 15:02:34,35010,2065
2024-12-18 15:02:34,35011,2068
2024-12-18 15:02:34,35011,2070
2024-12-18 15:02:34,35010,2072
2024-12-18 15:02:34,35010,2074
2024-12-18 15:02:34,35010,2076
2024-12-18 15:02:34,35010,2077
2024-12-18 15:02:34,35010,2078
2024-12-18 15:02:34,35011,2077
2024-12-18 15:02:34,35011,2078
2024-12-18 15:02:34,35011,2078
2024-12-18 15:02:34,35011,2078
2024-12-18 15:02:34,35011,2079
2024-12-18 15:02:34,35011,2078
2024-12-18 15:02:34,35010,2077
2024-12-18 15:02:34,35011,2080
2024-12-18 15:02:34,35011,2078
2024-12-18 15:02:34,35011,2076
2024-12-18 15:02:34,35010,2076
2024-12-18 15:02:34,35010,2074
2024-12-18 15:02:34,35009,2071
2024-12-18 15:02:34,35009,2069
2024-12-18 15:02:34,35009,2067
2024-12-18 15:02:34,35009,2064
2024-12-18 15:02:34,35009,2062
2024-12-18 15:02:34,35010,2060
2024-12-18 15:02:34,35010,2057
2024-12-18 15:02:34,35010,2055
2024-12-18 15:02:34,35010,2052
2024-12-18 15:02:34,35010,2050
2024-12-18 15:02:34,35010,2047
2024-12-18 15:02:34,35011,2044
2024-12-18 15:02:34,35011,2042
2024-12-18 15:02:34,35011,2039
2024-12-18 15:02:34,35011,2037
2024-12-18 15:02:34,35012,2035
2024-12-18 15:02:34,35012,2032
2024-12-18 15:02:34,35012,2030
2024-12-18 15:02:34,35012,2028
2024-12-18 15:02:34,35012,2026
2024-12-18 15:02:34,35012,2023
2024-12-18 15:02:34,35018,2023
2024-12-18 15:02:34,35013,2019
2024-12-18 15:02:34,35012,2016
2024-12-18 15:02:34,35012,2014
2024-12-18 15:02:34,35011,2011
2024-12-18 15:02:34,35010,2007
2024-12-18 15:02:34,35010,2005
2024-12-18 15:02:34,35010,2001
2024-12-18 15:02:34,35010,1999
2024-12-18 15:02:34,35010,1996
2024-12-18 15:02:34,35010,1992
2024-12-18 15:02:34,35011,1989
2024-12-18 15:02:34,35010,1986
2024-12-18 15:02:34,35010,1985
2024-12-18 15:02:34,35010,1983
2024-12-18 15:02:34,35010,1981
2024-12-18 15:02:34,35010,1978
2024-12-18 15:02:34,35010,1975
2024-12-18 15:02:34,35010,1973
2024-12-18 15:02:34,35010,1972
2024-12-18 15:02:34,35010,1970
2024-12-18 15:02:34,35009,1968
2024-12-18 15:02:34,35009,1966
2024-12-18 15:02:34,35009,1966
2024-12-18 15:02:34,35009,1964
2024-12-18 15:02:34,35009,1963
2024-12-18 15:02:34,35014,1965
2024-12-18 15:02:34,35010,1964
2024-12-18 15:02:34,35009,1962
2024-12-18 15:02:34,35008,1962
2024-12-18 15:02:34,35007,1962
2024-12-18 15:02:34,35007,1962
2024-12-18 15:02:34,35007,1962
2024-12-18 15:02:34,35007,1963
2024-12-18 15:02:34,35006,1962
2024-12-18 15:02:34,35007,1963
2024-12-18 15:02:34,35007,1963
2024-12-18 15:02:34,35007,1962
2024-12-18 15:02:34,35007,1961
2024-12-18 15:02:34,35007,1959
2024-12-18 15:02:34,35006,1958
2024-12-18 15:02:34,35006,1957
2024-12-18 15:02:34,35007,1955
2024-12-18 15:02:34,35007,1953
2024-12-18 15:02:34,35007,1951
2024-12-18 15:02:34,35007,1949
2024-12-18 15:02:34,35007,1945
2024-12-18 15:02:34,35007,1943
2024-12-18 15:02:34,35007,1942
2024-12-18 15:02:34,35007,1939
2024-12-18 15:02:34,35007,1936
2024-12-18 15:02:34,35007,1935
2024-12-18 15:02:34,35009,1934
2024-12-18 15:02:34,35008,1934
2024-12-18 15:02:34,35006,1932
2024-12-18 15:02:34,35006,1930
2024-12-18 15:02:34,35005,1929
2024-12-18 15:02:34,35004,1927
2024-12-18 15:02:34,35004,1926
2024-12-18 15:02:34,35004,1926
2024-12-18 15:02:34,35004,1925
2024-12-18 15:02:34,35004,1925
2024-12-18 15:02:34,35004,1925
2024-12-18 15:02:34,35004,1924
2024-12-18 15:02:34,35004,1923
2024-12-18 15:02:34,35004,1923
2024-12-18 15:02:34,35004,1922
2024-12-18 15:02:34,35004,1923
2024-12-18 15:02:34,35004,1923
2024-12-18 15:02:34,35004,1924
2024-12-18 15:02:34,35004,1925
2024-12-18 15:02:34,35004,1925
2024-12-18 15:02:34,35004,1926
2024-12-18 15:02:34,35004,1928
2024-12-18 15:02:34,35004,1930
2024-12-18 15:02:34,35004,1932
2024-12-18 15:02:34,35004,1933
2024-12-18 15:02:34,35004,1933
2024-12-18 15:02:34,35007,1936
2024-12-18 15:02:34,35006,1938
2024-12-18 15:02:34,35005,1938
2024-12-18 15:02:34,35004,1939
2024-12-18 15:02:34,35004,1940
2024-12-18 15:02:34,35003,1940
2024-12-18 15:02:34,35003,1942
2024-12-18 15:02:34,35003,1942
2024-12-18 15:02:34,35003,1943
2024-12-18 15:02:34,35004,1944
2024-12-18 15:02:34,35004,1945
2024-12-18 15:02:34,35004,1946
2024-12-18 15:02:34,35003,1946
2024-12-18 15:02:34,35004,1947
2024-12-18 15:02:34,35004,1948
2024-12-18 15:02:34,35004,1948
2024-12-18 15:02:34,35004,1948
2024-12-18 15:02:34,35004,1950
2024-12-18 15:02:34,35004,1951
2024-12-18 15:02:34,35004,1952
2024-12-18 15:02:34,35004,1952
2024-12-18 15:02:34,35004,1954
2024-12-18 15:02:34,35004,1956
2024-12-18 15:02:34,35004,1956
2024-12-18 15:02:34,35003,1956
2024-12-18 15:02:34,35004,1956
2024-12-18 15:02:34,35007,1959
2024-12-18 15:02:34,35006,1959
2024-12-18 15:02:34,35004,1958
2024-12-18 15:02:34,35004,1958
2024-12-18 15:02:34,35004,1957
2024-12-18 15:02:34,35003,1956
2024-12-18 15:02:34,35003,1955
2024-12-18 15:02:34,35004,1954
2024-12-18 15:02:34,35003,1953
2024-12-18 15:02:34,35004,1953
2024-12-18 15:02:34,35003,1951
2024-12-18 15:02:34,35004,1950
2024-12-18 15:02:34,35004,1949
2024-12-18 15:02:34,35004,1948
2024-12-18 15:02:34,35004,1947
2024-12-18 15:02:34,35004,1945
2024-12-18 15:02:34,35004,1944
2024-12-18 15:02:34,35004,1943
2024-12-18 15:02:34,35004,1941
2024-12-18 15:02:34,35004,1941
2024-12-18 15:02:34,35004,1941
2024-12-18 15:02:34,35004,1940
2024-12-18 15:02:34,35004,1940
2024-12-18 15:02:34,35004,1940
2024-12-18 15:02:34,35004,1940
2024-12-18 15:02:34,35004,1940
2024-12-18 15:02:34,35005,1939
2024-12-18 15:02:34,35005,1940
2024-12-18 15:02:34,35004,1939
2024-12-18 15:02:34,35004,1939
2024-12-18 15:02:34,35005,1939
2024-12-18 15:02:34,35004,1938
2024-12-18 15:02:34,35005,1938
2024-12-18 15:02:34,35005,1937
2024-12-18 15:02:34,35005,1938
2024-12-18 15:02:34,35005,1938
2024-12-18 15:02:34,35005,1937
2024-12-18 15:02:34,35005,1935
2024-12-18 15:02:34,35005,1936
2024-12-18 15:02:34,35005,1936
2024-12-18 15:02:34,35005,1936
2024-12-18 15:02:34,35006,1935
2024-12-18 15:02:34,35006,1935
2024-12-18 15:02:34,35006,1935
2024-12-18 15:02:34,35006,1935
2024-12-18 15:02:34,35005,1934
2024-12-18 15:02:34,35006,1933
2024-12-18 15:02:34,35006,1933
2024-12-18 15:02:34,35006,1933
2024-12-18 15:02:34,35006,1933
2024-12-18 15:02:34,35006,1932
2024-12-18 15:02:34,35006,1932
2024-12-18 15:02:34,35008,1934
2024-12-18 15:02:34,35006,1933
2024-12-18 15:02:34,35005,1930
2024-12-18 15:02:34,35005,1929
2024-12-18 15:02:34,35005,1929
2024-12-18 15:02:34,35004,1927
2024-12-18 15:02:35,35004,1926
2024-12-18 15:02:35,35004,1926
2024-12-18 15:02:35,35004,1926
2024-12-18 15:02:35,35005,1925
2024-12-18 15:02:35,35004,1925
2024-12-18 15:02:35,35004,1925
2024-12-18 15:02:35,35005,1925
2024-12-18 15:02:35,35005,1925
2024-12-18 15:02:35,35005,1925
2024-12-18 15:02:35,35005,1924
2024-12-18 15:02:35,35005,1924
2024-12-18 15:02:35,35005,1924
2024-12-18 15:02:35,35005,1923
2024-12-18 15:02:35,35005,1922
2024-12-18 15:02:35,35006,1920
2024-12-18 15:02:35,35006,1919
2024-12-18 15:02:35,35007,1918
2024-12-18 15:02:35,35006,1914
2024-12-18 15:02:35,35006,1912
2024-12-18 15:02:35,35007,1909
2024-12-18 15:02:35,35009,1908
2024-12-18 15:02:35,35008,1906
2024-12-18 15:02:35,35007,1902
2024-12-18 15:02:35,35006,1899
2024-12-18 15:02:35,35006,1896
2024-12-18 15:02:35,35006,1892
2024-12-18 15:02:35,35005,1889
2024-12-18 15:02:35,35005,1886
2024-12-18 15:02:35,35005,1884
2024-12-18 15:02:35,35005,1881
2024-12-18 15:02:35,35005,1879
2024-12-18 15:02:35,35005,1878
2024-12-18 15:02:35,35006,1876
2024-12-18 15:02:35,35005,1875
2024-12-18 15:02:35,35005,1873
2024-12-18 15:02:35,35005,1873
2024-12-18 15:02:35,35005,1871
2024-12-18 15:02:35,35005,1870
2024-12-18 15:02:35,35005,1869
2024-12-18 15:02:35,35004,1868
2024-12-18 15:02:35,35005,1868
2024-12-18 15:02:35,35005,1867
2024-12-18 15:02:35,35004,1866
2024-12-18 15:02:35,35004,1865
2024-12-18 15:02:35,35004,1864
2024-12-18 15:02:35,35004,1863
2024-12-18 15:02:35,35007,1863
2024-12-18 15:02:35,35005,1864
2024-12-18 15:02:35,35004,1859
2024-12-18 15:02:35,35003,1859
2024-12-18 15:02:35,35004,1858
2024-12-18 15:02:35,35002,1857
2024-12-18 15:02:35,35002,1856
2024-12-18 15:02:35,35003,1855
2024-12-18 15:02:35,35002,1854
2024-12-18 15:02:35,35002,1853
2024-12-18 15:02:35,35002,1852
2024-12-18 15:02:35,35002,1851
2024-12-18 15:02:35,35003,1852
2024-12-18 15:02:35,35002,1850
2024-12-18 15:02:35,35002,1849
2024-12-18 15:02:35,35002,1849
2024-12-18 15:02:35,35002,1849
2024-12-18 15:02:35,35002,1848
2024-12-18 15:02:35,35002,1849
2024-12-18 15:02:35,35002,1850
2024-12-18 15:02:35,35002,1850
2024-12-18 15:02:35,35002,1851
2024-12-18 15:02:35,35002,1852
2024-12-18 15:02:35,35001,1853
2024-12-18 15:02:35,35002,1853
2024-12-18 15:02:35,35002,1854
2024-12-18 15:02:35,35005,1857
2024-12-18 15:02:35,35003,1859
2024-12-18 15:02:35,35002,1857
2024-12-18 15:02:35,35002,1857
2024-12-18 15:02:35,35002,1859
2024-12-18 15:02:35,35000,1856
2024-12-18 15:02:35,35000,1856
2024-12-18 15:02:35,35000,1857
2024-12-18 15:02:35,35000,1856
2024-12-18 15:02:35,35000,1857
2024-12-18 15:02:35,35000,1857
2024-12-18 15:02:35,35000,1858
2024-12-18 15:02:35,35000,1859
2024-12-18 15:02:35,35001,1859
2024-12-18 15:02:35,35000,1858
2024-12-18 15:02:35,35001,1857
2024-12-18 15:02:35,35001,1857
2024-12-18 15:02:35,35001,1857
2024-12-18 15:02:35,35000,1857
2024-12-18 15:02:35,35000,1856
2024-12-18 15:02:35,35001,1856
2024-12-18 15:02:35,35001,1855
2024-12-18 15:02:35,35001,1854
2024-12-18 15:02:35,35001,1854
2024-12-18 15:02:35,35001,1854
2024-12-18 15:02:35,35001,1854
2024-12-18 15:02:35,35004,1856
2024-12-18 15:02:35,35002,1857
2024-12-18 15:02:35,35001,1857
2024-12-18 15:02:35,35001,1858
2024-12-18 15:02:35,35000,1859
2024-12-18 15:02:35,35000,1858
2024-12-18 15:02:35,35000,1857
2024-12-18 15:02:35,35000,1858
2024-12-18 15:02:35,35000,1858
2024-12-18 15:02:35,35000,1858
2024-12-18 15:02:35,35000,1858
2024-12-18 15:02:35,35000,1859
2024-12-18 15:02:35,35000,1858
2024-12-18 15:02:35,35000,1858
2024-12-18 15:02:35,35000,1859
2024-12-18 15:02:35,35000,1858
2024-12-18 15:02:35,35001,1858
2024-12-18 15:02:35,35000,1857
2024-12-18 15:02:35,35000,1855
2024-12-18 15:02:35,35000,1855
2024-12-18 15:02:35,35001,1855
2024-12-18 15:02:35,35000,1855
2024-12-18 15:02:35,35000,1854
2024-12-18 15:02:35,35000,1855
2024-12-18 15:02:35,35000,1855
2024-12-18 15:02:35,35000,1854
2024-12-18 15:02:35,35003,1855
2024-12-18 15:02:35,35002,1856
2024-12-18 15:02:35,35001,1855
2024-12-18 15:02:35,35000,1854
2024-12-18 15:02:35,35000,1854
2024-12-18 15:02:35,34999,1854
2024-12-18 15:02:35,35000,1854
2024-12-18 15:02:35,35000,1854
2024-12-18 15:02:35,35000,1854
2024-12-18 15:02:35,34999,1855
2024-12-18 15:02:35,34999,1854
2024-12-18 15:02:35,35000,1855
2024-12-18 15:02:35,35000,1854
2024-12-18 15:02:35,35000,1855
2024-12-18 15:02:35,35000,1855
2024-12-18 15:02:35,35000,1856
2024-12-18 15:02:35,35000,1855
2024-12-18 15:02:35,35000,1855
2024-12-18 15:02:35,35000,1855
2024-12-18 15:02:35,35000,1855
2024-12-18 15:02:35,35000,1855
2024-12-18 15:02:35,35000,1854
2024-12-18 15:02:35,35000,1854
2024-12-18 15:02:35,35000,1854
2024-12-18 15:02:35,35001,1854
2024-12-18 15:02:35,35000,1855
2024-12-18 15:02:35,35002,1860
2024-12-18 15:02:35,35001,1860
2024-12-18 15:02:35,35001,1860
2024-12-18 15:02:35,35000,1862
2024-12-18 15:02:35,35000,1864
2024-12-18 15:02:35,35000,1865
2024-12-18 15:02:35,35000,1868
2024-12-18 15:02:35,35000,1870
2024-12-18 15:02:35,35000,1873
2024-12-18 15:02:35,35000,1876
2024-12-18 15:02:35,35000,1881
2024-12-18 15:02:35,35000,1884
2024-12-18 15:02:35,35001,1888
2024-12-18 15:02:35,35001,1894
2024-12-18 15:02:35,35001,1898
2024-12-18 15:02:35,35001,1903
2024-12-18 15:02:35,35001,1908
2024-12-18 15:02:35,35001,1913
2024-12-18 15:02:35,35001,1918
2024-12-18 15:02:35,35001,1924
2024-12-18 15:02:35,35001,1928
2024-12-18 15:02:35,35001,1932
2024-12-18 15:02:35,35001,1937
2024-12-18 15:02:35,35001,1942
2024-12-18 15:02:35,35001,1945
2024-12-18 15:02:35,35001,1950
2024-12-18 15:02:35,35003,1959
2024-12-18 15:02:35,35004,1962
2024-12-18 15:02:35,35001,1964
2024-12-18 15:02:35,35001,1969
2024-12-18 15:02:35,35001,1974
2024-12-18 15:02:35,35000,1978
2024-12-18 15:02:35,34999,1982
2024-12-18 15:02:35,35000,1986
2024-12-18 15:02:35,34999,1991
2024-12-18 15:02:35,35000,1994
2024-12-18 15:02:35,35000,1998
2024-12-18 15:02:35,35000,2003
2024-12-18 15:02:35,35000,2008
2024-12-18 15:02:35,35000,2012
2024-12-18 15:02:35,35000,2016
2024-12-18 15:02:35,35000,2020
2024-12-18 15:02:35,35000,2024
2024-12-18 15:02:35,35000,2028
2024-12-18 15:02:35,35001,2031
2024-12-18 15:02:35,35000,2035
2024-12-18 15:02:35,35000,2038
2024-12-18 15:02:35,35000,2041
2024-12-18 15:02:35,35001,2044
2024-12-18 15:02:35,35001,2046
2024-12-18 15:02:35,35000,2048
2024-12-18 15:02:35,35000,2049
2024-12-18 15:02:35,35002,2054
2024-12-18 15:02:35,35002,2053
2024-12-18 15:02:35,35000,2052
2024-12-18 15:02:35,34999,2053
2024-12-18 15:02:35,34999,2053
2024-12-18 15:02:35,34998,2053
2024-12-18 15:02:35,34998,2052
2024-12-18 15:02:35,34998,2051
2024-12-18 15:02:35,34998,2051
2024-12-18 15:02:35,34998,2050
2024-12-18 15:02:35,34998,2049
2024-12-18 15:02:35,34998,2048
2024-12-18 15:02:35,34998,2047
2024-12-18 15:02:35,34999,2046
2024-12-18 15:02:35,34999,2046
2024-12-18 15:02:35,34999,2045
2024-12-18 15:02:35,34999,2042
2024-12-18 15:02:35,34999,2041
2024-12-18 15:02:35,34999,2040
2024-12-18 15:02:35,35000,2039
2024-12-18 15:02:35,35000,2037
2024-12-18 15:02:35,35000,2035
2024-12-18 15:02:35,35000,2033
2024-12-18 15:02:35,35000,2032
2024-12-18 15:02:35,34999,2030
2024-12-18 15:02:35,34999,2027
2024-12-18 15:02:35,35001,2030
2024-12-18 15:02:35,35001,2026
2024-12-18 15:02:35,35000,2023
2024-12-18 15:02:35,35000,2022
2024-12-18 15:02:35,35000,2021
2024-12-18 15:02:35,34999,2020
2024-12-18 15:02:35,34998,2017
2024-12-18 15:02:35,34999,2015
2024-12-18 15:02:35,34999,2013
2024-12-18 15:02:35,34999,2011
2024-12-18 15:02:35,34999,2008
2024-12-18 15:02:35,34999,2007
2024-12-18 15:02:35,34999,2006
2024-12-18 15:02:35,35000,2004
2024-12-18 15:02:35,35000,2002
2024-12-18 15:02:35,34999,1999
2024-12-18 15:02:35,35000,1997
2024-12-18 15:02:35,35000,1993
2024-12-18 15:02:35,35000,1990
2024-12-18 15:02:35,35000,1987
2024-12-18 15:02:35,35000,1983
2024-12-18 15:02:35,35000,1979
2024-12-18 15:02:35,35001,1975
2024-12-18 15:02:35,35000,1970
2024-12-18 15:02:35,34999,1966
2024-12-18 15:02:35,34999,1961
2024-12-18 15:02:35,35001,1962
2024-12-18 15:02:35,35004,1954
2024-12-18 15:02:35,35000,1948
2024-12-18 15:02:35,34999,1944
2024-12-18 15:02:35,34999,1939
2024-12-18 15:02:35,34998,1934
2024-12-18 15:02:35,34997,1930
2024-12-18 15:02:35,34997,1926
2024-12-18 15:02:35,34997,1921
2024-12-18 15:02:35,34998,1918
2024-12-18 15:02:35,34998,1916
2024-12-18 15:02:35,34997,1911
2024-12-18 15:02:35,34998,1909
2024-12-18 15:02:35,34998,1906
2024-12-18 15:02:35,34998,1905
2024-12-18 15:02:35,34998,1903
2024-12-18 15:02:35,34998,1902
2024-12-18 15:02:35,34998,1902
2024-12-18 15:02:35,34998,1902
2024-12-18 15:02:35,34998,1901
2024-12-18 15:02:35,34998,1901
2024-12-18 15:02:35,34998,1900
2024-12-18 15:02:35,34999,1899
2024-12-18 15:02:35,34998,1898
2024-12-18 15:02:35,34998,1897
2024-12-18 15:02:35,34998,1898
2024-12-18 15:02:35,35000,1900
2024-12-18 15:02:35,35004,1898
2024-12-18 15:02:35,34999,1898
2024-12-18 15:02:35,34999,1898
2024-12-18 15:02:35,34998,1899
2024-12-18 15:02:35,34997,1899
2024-12-18 15:02:35,34997,1899
2024-12-18 15:02:35,34997,1898
2024-12-18 15:02:35,34997,1900
2024-12-18 15:02:35,34997,1899
2024-12-18 15:02:35,34998,1899
2024-12-18 15:02:35,34997,1898
2024-12-18 15:02:35,34998,1898
2024-12-18 15:02:35,34998,1898
2024-12-18 15:02:35,34997,1897
2024-12-18 15:02:35,34998,1897
2024-12-18 15:02:35,34998,1897
2024-12-18 15:02:35,34998,1896
2024-12-18 15:02:35,34998,1897
2024-12-18 15:02:35,34998,1897
2024-12-18 15:02:35,34998,1897
2024-12-18 15:02:35,34999,1898
2024-12-18 15:02:35,34998,1897
2024-12-18 15:02:35,34998,1897
2024-12-18 15:02:35,34998,1897
2024-12-18 15:02:35,34998,1898
2024-12-18 15:02:35,34999,1903
2024-12-18 15:02:35,35000,1900
2024-12-18 15:02:35,34998,1898
2024-12-18 15:02:35,34999,1899
2024-12-18 15:02:35,34998,1899
2024-12-18 15:02:35,34997,1898
2024-12-18 15:02:35,34997,1899
2024-12-18 15:02:35,34997,1899
2024-12-18 15:02:35,34998,1901
2024-12-18 15:02:35,34997,1900
2024-12-18 15:02:35,34997,1900
2024-12-18 15:02:35,34998,1901
2024-12-18 15:02:35,34998,1901
2024-12-18 15:02:35,34998,1901
2024-12-18 15:02:35,34998,1902
2024-12-18 15:02:35,34998,1903
2024-12-18 15:02:35,34998,1905
2024-12-18 15:02:35,34998,1906
2024-12-18 15:02:35,34998,1907
2024-12-18 15:02:35,34998,1909
2024-12-18 15:02:35,34998,1910
2024-12-18 15:02:35,34999,1913
2024-12-18 15:02:35,34998,1913
2024-12-18 15:02:35,34998,1916
2024-12-18 15:02:35,34998,1916
2024-12-18 15:02:35,34998,1917
2024-12-18 15:02:35,34998,1919
2024-12-18 15:02:35,35000,1920
2024-12-18 15:02:35,34998,1920
2024-12-18 15:02:35,34998,1920
2024-12-18 15:02:35,34998,1920
2024-12-18 15:02:35,34997,1920
2024-12-18 15:02:35,34997,1921
2024-12-18 15:02:35,34997,1921
2024-12-18 15:02:35,34997,1920
2024-12-18 15:02:35,34997,1920
2024-12-18 15:02:35,34997,1920
2024-12-18 15:02:35,34997,1919
2024-12-18 15:02:35,34998,1918
2024-12-18 15:02:35,34997,1917
2024-12-18 15:02:35,34997,1916
2024-12-18 15:02:35,34998,1915
2024-12-18 15:02:35,34998,1915
2024-12-18 15:02:35,34998,1915
2024-12-18 15:02:35,34998,1913
2024-12-18 15:02:35,34998,1913
2024-12-18 15:02:35,34998,1913
2024-12-18 15:02:35,34998,1913
2024-12-18 15:02:35,34998,1913
2024-12-18 15:02:35,34998,1913
2024-12-18 15:02:35,34998,1913
2024-12-18 15:02:35,34998,1912
2024-12-18 15:02:35,35001,1917
2024-12-18 15:02:35,35001,1915
2024-12-18 15:02:35,34998,1915
2024-12-18 15:02:35,34998,1915
2024-12-18 15:02:35,34998,1916
2024-12-18 15:02:35,34997,1915
2024-12-18 15:02:35,34997,1915
2024-12-18 15:02:35,34997,1914
2024-12-18 15:02:35,34998,1915
2024-12-18 15:02:35,34997,1915
2024-12-18 15:02:35,34997,1915
2024-12-18 15:02:35,34998,1915
2024-12-18 15:02:35,34997,1915
2024-12-18 15:02:35,34997,1914
2024-12-18 15:02:35,34997,1913
2024-12-18 15:02:35,34997,1912
2024-12-18 15:02:35,34998,1911
2024-12-18 15:02:35,34998,1911
2024-12-18 15:02:35,34997,1910
2024-12-18 15:02:35,34998,1909
2024-12-18 15:02:35,34998,1908
2024-12-18 15:02:35,34998,1907
2024-12-18 15:02:35,34997,1907
2024-12-18 15:02:35,34998,1907
2024-12-18 15:02:35,34998,1906
2024-12-18 15:02:35,34998,1906
2024-12-18 15:02:35,35003,1911
2024-12-18 15:02:35,35001,1907
2024-12-18 15:02:35,34998,1907
2024-12-18 15:02:35,34998,1907
2024-12-18 15:02:35,34997,1907
2024-12-18 15:02:35,34996,1907
2024-12-18 15:02:35,34996,1907
2024-12-18 15:02:35,34997,1907
2024-12-18 15:02:35,34996,1906
2024-12-18 15:02:35,34996,1906
2024-12-18 15:02:35,34997,1904
2024-12-18 15:02:35,34997,1903
2024-12-18 15:02:35,34997,1903
2024-12-18 15:02:35,34997,1900
2024-12-18 15:02:35,34997,1900
2024-12-18 15:02:35,34997,1899
2024-12-18 15:02:35,34997,1897
2024-12-18 15:02:35,34997,1895
2024-12-18 15:02:35,34997,1893
2024-12-18 15:02:35,34998,1892
2024-12-18 15:02:35,34997,1890
2024-12-18 15:02:35,34997,1888
2024-12-18 15:02:35,34997,1886
2024-12-18 15:02:35,34997,1885
2024-12-18 15:02:35,34998,1883
2024-12-18 15:02:35,34997,1882
2024-12-18 15:02:35,35000,1885
2024-12-18 15:02:35,34999,1883
2024-12-18 15:02:35,34998,1883
2024-12-18 15:02:35,34997,1883
2024-12-18 15:02:35,34997,1884
2024-12-18 15:02:35,34996,1883
2024-12-18 15:02:35,34996,1883
2024-12-18 15:02:35,34996,1884
2024-12-18 15:02:35,34996,1885
2024-12-18 15:02:35,34996,1886
2024-12-18 15:02:35,34997,1887
2024-12-18 15:02:35,34996,1888
2024-12-18 15:02:35,34996,1889
2024-12-18 15:02:35,34996,1891
2024-12-18 15:02:35,34997,1891
2024-12-18 15:02:35,34997,1891
2024-12-18 15:02:35,34997,1891
2024-12-18 15:02:35,34997,1891
2024-12-18 15:02:35,34997,1892
2024-12-18 15:02:35,34997,1892
2024-12-18 15:02:35,34997,1893
2024-12-18 15:02:35,34997,1892
2024-12-18 15:02:35,34996,1892
2024-12-18 15:02:35,34997,1892
2024-12-18 15:02:35,34997,1893
2024-12-18 15:02:35,34997,1891
2024-12-18 15:02:35,35002,1894
2024-12-18 15:02:35,34999,1892
2024-12-18 15:02:35,34998,1891
2024-12-18 15:02:35,34997,1890
2024-12-18 15:02:35,34996,1890
2024-12-18 15:02:35,34995,1889
2024-12-18 15:02:35,34996,1888
2024-12-18 15:02:35,34996,1885
2024-12-18 15:02:35,34996,1883
2024-12-18 15:02:35,34996,1881
2024-12-18 15:02:35,34996,1880
2024-12-18 15:02:35,34996,1878
2024-12-18 15:02:35,34996,1876
2024-12-18 15:02:35,34996,1874
2024-12-18 15:02:35,34996,1872
2024-12-18 15:02:35,34996,1871
2024-12-18 15:02:35,34996,1870
2024-12-18 15:02:35,34996,1868
2024-12-18 15:02:35,34997,1868
2024-12-18 15:02:35,34997,1867
2024-12-18 15:02:35,34996,1866
2024-12-18 15:02:35,34996,1865
2024-12-18 15:02:35,34996,1865
2024-12-18 15:02:35,34997,1863
2024-12-18 15:02:35,34996,1863
2024-12-18 15:02:35,34996,1863
2024-12-18 15:02:35,35002,1865
2024-12-18 15:02:35,34998,1864
2024-12-18 15:02:35,34997,1865
2024-12-18 15:02:35,34996,1863
2024-12-18 15:02:35,34996,1862
2024-12-18 15:02:35,34995,1861
2024-12-18 15:02:35,34995,1860
2024-12-18 15:02:35,34995,1859
2024-12-18 15:02:35,34995,1859
2024-12-18 15:02:35,34995,1857
2024-12-18 15:02:35,34996,1858
2024-12-18 15:02:35,34995,1856
2024-12-18 15:02:35,34995,1857
2024-12-18 15:02:35,34995,1856
2024-12-18 15:02:35,34996,1856
2024-12-18 15:02:35,34996,1856
2024-12-18 15:02:35,34996,1855
2024-12-18 15:02:35,34996,1855
2024-12-18 15:02:35,34996,1855
2024-12-18 15:02:35,34996,1855
2024-12-18 15:02:35,34995,1855
2024-12-18 15:02:35,34996,1855
2024-12-18 15:02:35,34996,1856
2024-12-18 15:02:35,34996,1856
2024-12-18 15:02:35,34996,1857
2024-12-18 15:02:35,34996,1858
2024-12-18 15:02:35,34997,1861
2024-12-18 15:02:35,34998,1861
2024-12-18 15:02:35,34996,1862
2024-12-18 15:02:35,34996,1864
2024-12-18 15:02:35,34996,1865
2024-12-18 15:02:35,34995,1864
2024-12-18 15:02:35,34995,1867
2024-12-18 15:02:35,34995,1868
2024-12-18 15:02:35,34995,1869
2024-12-18 15:02:35,34995,1870
2024-12-18 15:02:35,34995,1872
2024-12-18 15:02:35,34995,1872
2024-12-18 15:02:35,34995,1874
2024-12-18 15:02:35,34996,1876
2024-12-18 15:02:35,34996,1876
2024-12-18 15:02:35,34996,1878
2024-12-18 15:02:35,34996,1878
2024-12-18 15:02:35,34996,1878
2024-12-18 15:02:35,34996,1878
2024-12-18 15:02:35,34996,1878
2024-12-18 15:02:35,34995,1876
2024-12-18 15:02:35,34996,1877
2024-12-18 15:02:35,34995,1877
2024-12-18 15:02:35,34996,1877
2024-12-18 15:02:36,34996,1875
2024-12-18 15:02:36,34996,1875
2024-12-18 15:02:36,35001,1877
2024-12-18 15:02:36,34997,1875
2024-12-18 15:02:36,34995,1874
2024-12-18 15:02:36,34996,1872
2024-12-18 15:02:36,34996,1871
2024-12-18 15:02:36,34995,1870
2024-12-18 15:02:36,34995,1870
2024-12-18 15:02:36,34995,1870
2024-12-18 15:02:36,34995,1869
2024-12-18 15:02:36,34995,1868
2024-12-18 15:02:36,34995,1868
2024-12-18 15:02:36,34995,1868
2024-12-18 15:02:36,34995,1867
2024-12-18 15:02:36,34995,1868
2024-12-18 15:02:36,34996,1868
2024-12-18 15:02:36,34995,1869
2024-12-18 15:02:36,34995,1870
2024-12-18 15:02:36,34996,1869
2024-12-18 15:02:36,34996,1870
2024-12-18 15:02:36,34995,1872
2024-12-18 15:02:36,34995,1873
2024-12-18 15:02:36,34995,1873
2024-12-18 15:02:36,34995,1874
2024-12-18 15:02:36,34995,1873
2024-12-18 15:02:36,34995,1873
2024-12-18 15:02:36,34995,1873
2024-12-18 15:02:36,35001,1878
2024-12-18 15:02:36,34997,1877
2024-12-18 15:02:36,34995,1878
2024-12-18 15:02:36,34995,1879
2024-12-18 15:02:36,34995,1881
2024-12-18 15:02:36,34995,1883
2024-12-18 15:02:36,34994,1885
2024-12-18 15:02:36,34994,1887
2024-12-18 15:02:36,34995,1891
2024-12-18 15:02:36,34995,1894
2024-12-18 15:02:36,34994,1897
2024-12-18 15:02:36,34994,1900
2024-12-18 15:02:36,34995,1904
2024-12-18 15:02:36,34995,1908
2024-12-18 15:02:36,34995,1911
2024-12-18 15:02:36,34995,1914
2024-12-18 15:02:36,34995,1918
2024-12-18 15:02:36,34995,1920
2024-12-18 15:02:36,34995,1924
2024-12-18 15:02:36,34995,1927
2024-12-18 15:02:36,34995,1931
2024-12-18 15:02:36,34995,1933
2024-12-18 15:02:36,34995,1937
2024-12-18 15:02:36,34994,1939
2024-12-18 15:02:36,34995,1942
2024-12-18 15:02:36,34995,1946
2024-12-18 15:02:36,35000,1950
2024-12-18 15:02:36,34996,1952
2024-12-18 15:02:36,34994,1954
2024-12-18 15:02:36,34995,1955
2024-12-18 15:02:36,34995,1958
2024-12-18 15:02:36,34994,1960
2024-12-18 15:02:36,34994,1960
2024-12-18 15:02:36,34994,1962
2024-12-18 15:02:36,34994,1963
2024-12-18 15:02:36,34994,1964
2024-12-18 15:02:36,34994,1965
2024-12-18 15:02:36,34993,1966
2024-12-18 15:02:36,34994,1967
2024-12-18 15:02:36,34994,1968
2024-12-18 15:02:36,34994,1969
2024-12-18 15:02:36,34994,1970
2024-12-18 15:02:36,34994,1971
2024-12-18 15:02:36,34994,1972
2024-12-18 15:02:36,34994,1973
2024-12-18 15:02:36,34994,1974
2024-12-18 15:02:36,34994,1975
2024-12-18 15:02:36,34995,1975
2024-12-18 15:02:36,34994,1975
2024-12-18 15:02:36,34995,1976
2024-12-18 15:02:36,34994,1978
2024-12-18 15:02:36,34995,1979
2024-12-18 15:02:36,35001,1981
2024-12-18 15:02:36,34996,1980
2024-12-18 15:02:36,34995,1980
2024-12-18 15:02:36,34995,1981
2024-12-18 15:02:36,34995,1981
2024-12-18 15:02:36,34993,1980
2024-12-18 15:02:36,34993,1980
2024-12-18 15:02:36,34993,1979
2024-12-18 15:02:36,34994,1980
2024-12-18 15:02:36,34993,1979
2024-12-18 15:02:36,34993,1979
2024-12-18 15:02:36,34994,1979
2024-12-18 15:02:36,34994,1978
2024-12-18 15:02:36,34994,1978
2024-12-18 15:02:36,34994,1977
2024-12-18 15:02:36,34994,1975
2024-12-18 15:02:36,34994,1974
2024-12-18 15:02:36,34994,1971
2024-12-18 15:02:36,34994,1969
2024-12-18 15:02:36,34994,1967
2024-12-18 15:02:36,34994,1965
2024-12-18 15:02:36,34994,1963
2024-12-18 15:02:36,34994,1960
2024-12-18 15:02:36,34994,1958
2024-12-18 15:02:36,34994,1956
2024-12-18 15:02:36,34994,1955
2024-12-18 15:02:36,34996,1958
2024-12-18 15:02:36,34995,1954
2024-12-18 15:02:36,34994,1951
2024-12-18 15:02:36,34994,1949
2024-12-18 15:02:36,34994,1948
2024-12-18 15:02:36,34992,1944
2024-12-18 15:02:36,34993,1943
2024-12-18 15:02:36,34993,1942
2024-12-18 15:02:36,34993,1940
2024-12-18 15:02:36,34993,1937
2024-12-18 15:02:36,34993,1937
2024-12-18 15:02:36,34993,1934
2024-12-18 15:02:36,34993,1933
2024-12-18 15:02:36,34994,1932
2024-12-18 15:02:36,34993,1930
2024-12-18 15:02:36,34994,1930
2024-12-18 15:02:36,34993,1929
2024-12-18 15:02:36,34994,1929
2024-12-18 15:02:36,34993,1929
2024-12-18 15:02:36,34993,1930
2024-12-18 15:02:36,34994,1929
2024-12-18 15:02:36,34993,1928
2024-12-18 15:02:36,34994,1928
2024-12-18 15:02:36,34994,1928
2024-12-18 15:02:36,34994,1929
2024-12-18 15:02:36,34994,1929
2024-12-18 15:02:36,34996,1930
2024-12-18 15:02:36,34994,1931
2024-12-18 15:02:36,34994,1930
2024-12-18 15:02:36,34993,1931
2024-12-18 15:02:36,34993,1931
2024-12-18 15:02:36,34992,1930
2024-12-18 15:02:36,34992,1930
2024-12-18 15:02:36,34992,1931
2024-12-18 15:02:36,34992,1930
2024-12-18 15:02:36,34992,1930
2024-12-18 15:02:36,34993,1930
2024-12-18 15:02:36,34993,1930
2024-12-18 15:02:36,34993,1929
2024-12-18 15:02:36,34993,1929
2024-12-18 15:02:36,34992,1928
2024-12-18 15:02:36,34993,1927
2024-12-18 15:02:36,34993,1927
2024-12-18 15:02:36,34992,1926
2024-12-18 15:02:36,34993,1923
2024-12-18 15:02:36,34993,1922
2024-12-18 15:02:36,34993,1920
2024-12-18 15:02:36,34993,1918
2024-12-18 15:02:36,34993,1915
2024-12-18 15:02:36,34993,1913
2024-12-18 15:02:36,34994,1911
2024-12-18 15:02:36,34994,1909
2024-12-18 15:02:36,34996,1910
2024-12-18 15:02:36,34995,1908
2024-12-18 15:02:36,34995,1905
2024-12-18 15:02:36,34994,1902
2024-12-18 15:02:36,34994,1901
2024-12-18 15:02:36,34992,1900
2024-12-18 15:02:36,34993,1899
2024-12-18 15:02:36,34993,1899
2024-12-18 15:02:36,34992,1897
2024-12-18 15:02:36,34992,1897
2024-12-18 15:02:36,34993,1896
2024-12-18 15:02:36,34993,1895
2024-12-18 15:02:36,34994,1895
2024-12-18 15:02:36,34993,1894
2024-12-18 15:02:36,34993,1895
2024-12-18 15:02:36,34994,1895
2024-12-18 15:02:36,34993,1895
2024-12-18 15:02:36,34993,1896
2024-12-18 15:02:36,34993,1898
2024-12-18 15:02:36,34993,1898
2024-12-18 15:02:36,34994,1900
2024-12-18 15:02:36,34994,1900
2024-12-18 15:02:36,34993,1902
2024-12-18 15:02:36,34994,1905
2024-12-18 15:02:36,34994,1905
2024-12-18 15:02:36,34993,1906
2024-12-18 15:02:36,34996,1909
2024-12-18 15:02:36,34995,1911
2024-12-18 15:02:36,34994,1912
2024-12-18 15:02:36,34994,1913
2024-12-18 15:02:36,34994,1915
2024-12-18 15:02:36,34992,1916
2024-12-18 15:02:36,34993,1917
2024-12-18 15:02:36,34993,1918
2024-12-18 15:02:36,34992,1920
2024-12-18 15:02:36,34992,1921
2024-12-18 15:02:36,34993,1922
2024-12-18 15:02:36,34993,1923
2024-12-18 15:02:36,34992,1923
2024-12-18 15:02:36,34992,1923
2024-12-18 15:02:36,34993,1924
2024-12-18 15:02:36,34993,1925
2024-12-18 15:02:36,34993,1925
2024-12-18 15:02:36,34992,1926
2024-12-18 15:02:36,34992,1926
2024-12-18 15:02:36,34993,1925
2024-12-18 15:02:36,34993,1924
2024-12-18 15:02:36,34993,1924
2024-12-18 15:02:36,34993,1923
2024-12-18 15:02:36,34993,1923
2024-12-18 15:02:36,34993,1923
2024-12-18 15:02:36,34993,1923
2024-12-18 15:02:36,34993,1923
2024-12-18 15:02:36,34993,1923
2024-12-18 15:02:36,34993,1923
2024-12-18 15:02:36,34993,1923
2024-12-18 15:02:36,34993,1923
2024-12-18 15:02:36,34993,1924
2024-12-18 15:02:36,34993,1925
2024-12-18 15:02:36,34992,1926
2024-12-18 15:02:36,34992,1926
2024-12-18 15:02:36,34993,1927
2024-12-18 15:02:36,34993,1927
2024-12-18 15:02:36,34993,1927
2024-12-18 15:02:36,34993,1927
2024-12-18 15:02:36,34992,1928
2024-12-18 15:02:36,34993,1928
2024-12-18 15:02:36,34993,1928
2024-12-18 15:02:36,34992,1928
2024-12-18 15:02:36,34992,1927
2024-12-18 15:02:36,34993,1925
2024-12-18 15:02:36,34993,1924
2024-12-18 15:02:36,34992,1922
2024-12-18 15:02:36,34992,1921
2024-12-18 15:02:36,34993,1919
2024-12-18 15:02:36,34993,1917
2024-12-18 15:02:36,34992,1916
2024-12-18 15:02:36,34992,1914
2024-12-18 15:02:36,34995,1914
2024-12-18 15:02:36,34995,1912
2024-12-18 15:02:36,34993,1909
2024-12-18 15:02:36,34993,1906
2024-12-18 15:02:36,34993,1904
2024-12-18 15:02:36,34992,1900
2024-12-18 15:02:36,34992,1897
2024-12-18 15:02:36,34992,1894
2024-12-18 15:02:36,34992,1892
2024-12-18 15:02:36,34992,1888
2024-12-18 15:02:36,34992,1886
2024-12-18 15:02:36,34992,1882
2024-12-18 15:02:36,34992,1880
2024-12-18 15:02:36,34992,1879
2024-12-18 15:02:36,34993,1876
2024-12-18 15:02:36,34992,1875
2024-12-18 15:02:36,34992,1873
2024-12-18 15:02:36,34992,1871
2024-12-18 15:02:36,34993,1871
2024-12-18 15:02:36,34993,1870
2024-12-18 15:02:36,34992,1870
2024-12-18 15:02:36,34993,1869
2024-12-18 15:02:36,34993,1869
2024-12-18 15:02:36,34993,1868
2024-12-18 15:02:36,34993,1869
2024-12-18 15:02:36,34993,1870
2024-12-18 15:02:36,34996,1872
2024-12-18 15:02:36,34995,1875
2024-12-18 15:02:36,34993,1874
2024-12-18 15:02:36,34993,1875
2024-12-18 15:02:36,34993,1875
2024-12-18 15:02:36,34992,1875
2024-12-18 15:02:36,34992,1875
2024-12-18 15:02:36,34992,1875
2024-12-18 15:02:36,34992,1875
2024-12-18 15:02:36,34992,1875
2024-12-18 15:02:36,34992,1875
2024-12-18 15:02:36,34992,1874
2024-12-18 15:02:36,34992,1872
2024-12-18 15:02:36,34993,1873
2024-12-18 15:02:36,34993,1872
2024-12-18 15:02:36,34992,1873
2024-12-18 15:02:36,34992,1873
2024-12-18 15:02:36,34992,1873
2024-12-18 15:02:36,34993,1874
2024-12-18 15:02:36,34993,1874
2024-12-18 15:02:36,34993,1874
2024-12-18 15:02:36,34993,1875
2024-12-18 15:02:36,34993,1875
2024-12-18 15:02:36,34993,1875
2024-12-18 15:02:36,34993,1876
2024-12-18 15:02:36,34993,1877
2024-12-18 15:02:36,34996,1879
2024-12-18 15:02:36,34995,1884
2024-12-18 15:02:36,34993,1880
2024-12-18 15:02:36,34993,1881
2024-12-18 15:02:36,34993,1882
2024-12-18 15:02:36,34992,1881
2024-12-18 15:02:36,34991,1880
2024-12-18 15:02:36,34992,1880
2024-12-18 15:02:36,34992,1879
2024-12-18 15:02:36,34992,1877
2024-12-18 15:02:36,34992,1875
2024-12-18 15:02:36,34992,1873
2024-12-18 15:02:36,34992,1871
2024-12-18 15:02:36,34992,1870
2024-12-18 15:02:36,34992,1867
2024-12-18 15:02:36,34992,1865
2024-12-18 15:02:36,34992,1863
2024-12-18 15:02:36,34993,1861
2024-12-18 15:02:36,34993,1859
2024-12-18 15:02:36,34992,1855
2024-12-18 15:02:36,34992,1853
2024-12-18 15:02:36,34993,1852
2024-12-18 15:02:36,34992,1849
2024-12-18 15:02:36,34992,1847
2024-12-18 15:02:36,34992,1846
2024-12-18 15:02:36,34992,1844
2024-12-18 15:02:36,34996,1843
2024-12-18 15:02:36,34994,1842
2024-12-18 15:02:36,34993,1840
2024-12-18 15:02:36,34993,1839
2024-12-18 15:02:36,34992,1838
2024-12-18 15:02:36,34991,1835
2024-12-18 15:02:36,34991,1834
2024-12-18 15:02:36,34991,1832
2024-12-18 15:02:36,34992,1831
2024-12-18 15:02:36,34992,1831
2024-12-18 15:02:36,34992,1829
2024-12-18 15:02:36,34992,1829
2024-12-18 15:02:36,34992,1830
2024-12-18 15:02:36,34992,1829
2024-12-18 15:02:36,34992,1829
2024-12-18 15:02:36,34991,1829
2024-12-18 15:02:36,34992,1830
2024-12-18 15:02:36,34992,1830
2024-12-18 15:02:36,34992,1830
2024-12-18 15:02:36,34992,1830
2024-12-18 15:02:36,34992,1831
2024-12-18 15:02:36,34992,1831
2024-12-18 15:02:36,34992,1832
2024-12-18 15:02:36,34992,1834
2024-12-18 15:02:36,34992,1835
2024-12-18 15:02:36,34992,1837
2024-12-18 15:02:36,34994,1840
2024-12-18 15:02:36,34997,1840
2024-12-18 15:02:36,34992,1840
2024-12-18 15:02:36,34993,1842
2024-12-18 15:02:36,34992,1843
2024-12-18 15:02:36,34991,1843
2024-12-18 15:02:36,34991,1844
2024-12-18 15:02:36,34991,1846
2024-12-18 15:02:36,34992,1846
2024-12-18 15:02:36,34992,1846
2024-12-18 15:02:36,34991,1848
2024-12-18 15:02:36,34992,1848
2024-12-18 15:02:36,34992,1849
2024-12-18 15:02:36,34992,1848
2024-12-18 15:02:36,34992,1850
2024-12-18 15:02:36,34992,1851
2024-12-18 15:02:36,34992,1851
2024-12-18 15:02:36,34992,1852
2024-12-18 15:02:36,34992,1853
2024-12-18 15:02:36,34992,1853
2024-12-18 15:02:36,34992,1854
2024-12-18 15:02:36,34992,1855
2024-12-18 15:02:36,34992,1857
2024-12-18 15:02:36,34992,1859
2024-12-18 15:02:36,34992,1861
2024-12-18 15:02:36,34992,1862
2024-12-18 15:02:36,34996,1864
2024-12-18 15:02:36,34994,1867
2024-12-18 15:02:36,34993,1868
2024-12-18 15:02:36,34993,1870
2024-12-18 15:02:36,34992,1871
2024-12-18 15:02:36,34991,1872
2024-12-18 15:02:36,34991,1874
2024-12-18 15:02:36,34991,1874
2024-12-18 15:02:36,34992,1874
2024-12-18 15:02:36,34992,1874
2024-12-18 15:02:36,34992,1874
2024-12-18 15:02:36,34992,1874
2024-12-18 15:02:36,34992,1873
2024-12-18 15:02:36,34991,1872
2024-12-18 15:02:36,34991,1871
2024-12-18 15:02:36,34992,1871
2024-12-18 15:02:36,34992,1870
2024-12-18 15:02:36,34992,1869
2024-12-18 15:02:36,34992,1868
2024-12-18 15:02:36,34992,1868
2024-12-18 15:02:36,34992,1867
2024-12-18 15:02:36,34992,1866
2024-12-18 15:02:36,34992,1866
2024-12-18 15:02:36,34992,1866
2024-12-18 15:02:36,34992,1867
2024-12-18 15:02:36,34992,1866
2024-12-18 15:02:36,34994,1871
2024-12-18 15:02:36,34994,1869
2024-12-18 15:02:36,34993,1868
2024-12-18 15:02:36,34992,1867
2024-12-18 15:02:36,34992,1867
2024-12-18 15:02:36,34991,1865
2024-12-18 15:02:36,34991,1864
2024-12-18 15:02:36,34991,1864
2024-12-18 15:02:36,34992,1862
2024-12-18 15:02:36,34991,1862
2024-12-18 15:02:36,34992,1862
2024-12-18 15:02:36,34992,1861
2024-12-18 15:02:36,34992,1860
2024-12-18 15:02:36,34991,1860
2024-12-18 15:02:36,34991,1860
2024-12-18 15:02:36,34992,1860
2024-12-18 15:02:36,34991,1861
2024-12-18 15:02:36,34992,1861
2024-12-18 15:02:36,34991,1860
2024-12-18 15:02:36,34992,1861
2024-12-18 15:02:36,34992,1861
2024-12-18 15:02:36,34992,1863
2024-12-18 15:02:36,34992,1864
2024-12-18 15:02:36,34992,1866
2024-12-18 15:02:36,34992,1868
2024-12-18 15:02:36,34992,1870
2024-12-18 15:02:36,34993,1876
2024-12-18 15:02:36,34993,1878
2024-12-18 15:02:36,34993,1878
2024-12-18 15:02:36,34992,1881
2024-12-18 15:02:36,34992,1883
2024-12-18 15:02:36,34991,1886
2024-12-18 15:02:36,34991,1889
2024-12-18 15:02:36,34991,1892
2024-12-18 15:02:36,34991,1895
2024-12-18 15:02:36,34991,1898
2024-12-18 15:02:36,34992,1902
2024-12-18 15:02:36,34991,1904
2024-12-18 15:02:36,34991,1907
2024-12-18 15:02:36,34991,1909
2024-12-18 15:02:36,34992,1912
2024-12-18 15:02:36,34992,1915
2024-12-18 15:02:36,34992,1919
2024-12-18 15:02:36,34992,1922
2024-12-18 15:02:36,34992,1926
2024-12-18 15:02:36,34992,1929
2024-12-18 15:02:36,34992,1934
2024-12-18 15:02:36,34992,1937
2024-12-18 15:02:36,34991,1940
2024-12-18 15:02:36,34992,1944
2024-12-18 15:02:36,34992,1946
2024-12-18 15:02:36,34992,1950
2024-12-18 15:02:36,34993,1957
2024-12-18 15:02:36,34992,1959
2024-12-18 15:02:36,34992,1961
2024-12-18 15:02:36,34992,1965
2024-12-18 15:02:36,34991,1969
2024-12-18 15:02:36,34990,1971
2024-12-18 15:02:36,34991,1975
2024-12-18 15:02:36,34991,1979
2024-12-18 15:02:36,34991,1981
2024-12-18 15:02:36,34991,1985
2024-12-18 15:02:36,34991,1987
2024-12-18 15:02:36,34992,1990
2024-12-18 15:02:36,34991,1992
2024-12-18 15:02:36,34991,1993
2024-12-18 15:02:36,34991,1994
2024-12-18 15:02:36,34992,1995
2024-12-18 15:02:36,34992,1995
2024-12-18 15:02:36,34992,1994
2024-12-18 15:02:36,34992,1994
2024-12-18 15:02:36,34992,1994
2024-12-18 15:02:36,34992,1993
2024-12-18 15:02:36,34992,1990
2024-12-18 15:02:36,34992,1989
2024-12-18 15:02:36,34992,1987
2024-12-18 15:02:36,34992,1984
2024-12-18 15:02:36,34992,1983
2024-12-18 15:02:36,34993,1986
2024-12-18 15:02:36,34996,1980
2024-12-18 15:02:36,34992,1976
2024-12-18 15:02:36,34992,1974
2024-12-18 15:02:36,34991,1972
2024-12-18 15:02:36,34991,1970
2024-12-18 15:02:36,34991,1968
2024-12-18 15:02:36,34991,1966
2024-12-18 15:02:36,34991,1963
2024-12-18 15:02:36,34991,1960
2024-12-18 15:02:36,34991,1957
2024-12-18 15:02:36,34991,1955
2024-12-18 15:02:36,34991,1952
2024-12-18 15:02:36,34991,1950
2024-12-18 15:02:36,34992,1948
2024-12-18 15:02:36,34992,1946
2024-12-18 15:02:36,34992,1944
2024-12-18 15:02:36,34992,1942
2024-12-18 15:02:36,34992,1939
2024-12-18 15:02:36,34992,1938
2024-12-18 15:02:36,34991,1935
2024-12-18 15:02:36,34992,1934
2024-12-18 15:02:36,34991,1932
2024-12-18 15:02:36,34992,1931
2024-12-18 15:02:36,34992,1929
2024-12-18 15:02:36,34992,1928
2024-12-18 15:02:36,34993,1929
2024-12-18 15:02:36,34997,1928
2024-12-18 15:02:36,34992,1926
2024-12-18 15:02:36,34991,1924
2024-12-18 15:02:36,34991,1924
2024-12-18 15:02:36,34990,1923
2024-12-18 15:02:36,34991,1922
2024-12-18 15:02:36,34991,1921
2024-12-18 15:02:36,34990,1922
2024-12-18 15:02:36,34991,1922
2024-12-18 15:02:36,34991,1923
2024-12-18 15:02:36,34990,1923
2024-12-18 15:02:36,34991,1923
2024-12-18 15:02:36,34991,1924
2024-12-18 15:02:36,34991,1923
2024-12-18 15:02:36,34991,1923
2024-12-18 15:02:37,34991,1924
2024-12-18 15:02:37,34991,1924
2024-12-18 15:02:37,34991,1924
2024-12-18 15:02:37,34992,1925
2024-12-18 15:02:37,34991,1926
2024-12-18 15:02:37,34991,1926
2024-12-18 15:02:37,34991,1927
2024-12-18 15:02:37,34992,1926
2024-12-18 15:02:37,34992,1927
2024-12-18 15:02:37,34991,1926
2024-12-18 15:02:37,34993,1930
2024-12-18 15:02:37,34996,1926
2024-12-18 15:02:37,34992,1923
2024-12-18 15:02:37,34991,1922
2024-12-18 15:02:37,34992,1919
2024-12-18 15:02:37,34991,1916
2024-12-18 15:02:37,34991,1915
2024-12-18 15:02:37,34991,1913
2024-12-18 15:02:37,34991,1910
2024-12-18 15:02:37,34991,1909
2024-12-18 15:02:37,34992,1906
2024-12-18 15:02:37,34991,1904
2024-12-18 15:02:37,34991,1903
2024-12-18 15:02:37,34992,1902
2024-12-18 15:02:37,34992,1900
2024-12-18 15:02:37,34992,1900
2024-12-18 15:02:37,34992,1898
2024-12-18 15:02:37,34992,1898
2024-12-18 15:02:37,34992,1896
2024-12-18 15:02:37,34992,1894
2024-12-18 15:02:37,34992,1893
2024-12-18 15:02:37,34992,1893
2024-12-18 15:02:37,34992,1892
2024-12-18 15:02:37,34992,1892
2024-12-18 15:02:37,34992,1892
2024-12-18 15:02:37,34992,1892
2024-12-18 15:02:37,34997,1895
2024-12-18 15:02:37,34994,1894
2024-12-18 15:02:37,34992,1893
2024-12-18 15:02:37,34992,1894
2024-12-18 15:02:37,34992,1894
2024-12-18 15:02:37,34991,1894
2024-12-18 15:02:37,34991,1894
2024-12-18 15:02:37,34991,1894
2024-12-18 15:02:37,34992,1895
2024-12-18 15:02:37,34992,1895
2024-12-18 15:02:37,34992,1895
2024-12-18 15:02:37,34992,1894
2024-12-18 15:02:37,34992,1894
2024-12-18 15:02:37,34992,1895
2024-12-18 15:02:37,34992,1894
2024-12-18 15:02:37,34992,1895
2024-12-18 15:02:37,34992,1894
2024-12-18 15:02:37,34993,1893
2024-12-18 15:02:37,34993,1893
2024-12-18 15:02:37,34992,1893
2024-12-18 15:02:37,34992,1891
2024-12-18 15:02:37,34992,1891
2024-12-18 15:02:37,34992,1889
2024-12-18 15:02:37,34992,1890
2024-12-18 15:02:37,34993,1888
2024-12-18 15:02:37,34992,1887
2024-12-18 15:02:37,34993,1889
2024-12-18 15:02:37,34994,1887
2024-12-18 15:02:37,34993,1885
2024-12-18 15:02:37,34992,1885
2024-12-18 15:02:37,34993,1885
2024-12-18 15:02:37,34992,1884
2024-12-18 15:02:37,34992,1883
2024-12-18 15:02:37,34992,1882
2024-12-18 15:02:37,34992,1882
2024-12-18 15:02:37,34992,1881
2024-12-18 15:02:37,34992,1880
2024-12-18 15:02:37,34992,1880
2024-12-18 15:02:37,34992,1880
2024-12-18 15:02:37,34992,1879
2024-12-18 15:02:37,34992,1879
2024-12-18 15:02:37,34992,1878
2024-12-18 15:02:37,34992,1876
2024-12-18 15:02:37,34992,1876
2024-12-18 15:02:37,34992,1874
2024-12-18 15:02:37,34992,1873
2024-12-18 15:02:37,34992,1872
2024-12-18 15:02:37,34992,1871
2024-12-18 15:02:37,34993,1870
2024-12-18 15:02:37,34992,1870
2024-12-18 15:02:37,34992,1870
2024-12-18 15:02:37,34993,1871
2024-12-18 15:02:37,34998,1875
2024-12-18 15:02:37,34996,1871
2024-12-18 15:02:37,34992,1871
2024-12-18 15:02:37,34993,1870
2024-12-18 15:02:37,34992,1870
2024-12-18 15:02:37,34991,1870
2024-12-18 15:02:37,34991,1871
2024-12-18 15:02:37,34992,1872
2024-12-18 15:02:37,34992,1872
2024-12-18 15:02:37,34992,1873
2024-12-18 15:02:37,34991,1875
2024-12-18 15:02:37,34992,1876
2024-12-18 15:02:37,34992,1876
2024-12-18 15:02:37,34992,1877
2024-12-18 15:02:37,34992,1878
2024-12-18 15:02:37,34992,1879
2024-12-18 15:02:37,34992,1879
2024-12-18 15:02:37,34993,1878
2024-12-18 15:02:37,34992,1878
2024-12-18 15:02:37,34992,1878
2024-12-18 15:02:37,34992,1877
2024-12-18 15:02:37,34993,1876
2024-12-18 15:02:37,34992,1876
2024-12-18 15:02:37,34993,1875
2024-12-18 15:02:37,34993,1876
2024-12-18 15:02:37,34993,1875
2024-12-18 15:02:37,34998,1879
2024-12-18 15:02:37,34996,1876
2024-12-18 15:02:37,34993,1876
2024-12-18 15:02:37,34993,1875
2024-12-18 15:02:37,34993,1875
2024-12-18 15:02:37,34992,1874
2024-12-18 15:02:37,34992,1874
2024-12-18 15:02:37,34992,1873
2024-12-18 15:02:37,34992,1872
2024-12-18 15:02:37,34992,1871
2024-12-18 15:02:37,34992,1871
2024-12-18 15:02:37,34992,1871
2024-12-18 15:02:37,34993,1871
2024-12-18 15:02:37,34993,1871
2024-12-18 15:02:37,34993,1872
2024-12-18 15:02:37,34993,1872
2024-12-18 15:02:37,34993,1872
2024-12-18 15:02:37,34993,1872
2024-12-18 15:02:37,34993,1872
2024-12-18 15:02:37,34993,1872
2024-12-18 15:02:37,34993,1873
2024-12-18 15:02:37,34993,1873
2024-12-18 15:02:37,34993,1873
2024-12-18 15:02:37,34993,1873
2024-12-18 15:02:37,34993,1873
2024-12-18 15:02:37,34993,1873
2024-12-18 15:02:37,34996,1874
2024-12-18 15:02:37,34996,1873
2024-12-18 15:02:37,34994,1871
2024-12-18 15:02:37,34993,1872
2024-12-18 15:02:37,34993,1871
2024-12-18 15:02:37,34992,1870
2024-12-18 15:02:37,34993,1870
2024-12-18 15:02:37,34993,1870
2024-12-18 15:02:37,34993,1869
2024-12-18 15:02:37,34992,1869
2024-12-18 15:02:37,34992,1868
2024-12-18 15:02:37,34993,1868
2024-12-18 15:02:37,34993,1867
2024-12-18 15:02:37,34993,1866
2024-12-18 15:02:37,34993,1864
2024-12-18 15:02:37,34993,1862
2024-12-18 15:02:37,34994,1860
2024-12-18 15:02:37,34993,1859
2024-12-18 15:02:37,34993,1857
2024-12-18 15:02:37,34993,1854
2024-12-18 15:02:37,34994,1852
2024-12-18 15:02:37,34994,1849
2024-12-18 15:02:37,34993,1848
2024-12-18 15:02:37,34994,1846
2024-12-18 15:02:37,34993,1844
2024-12-18 15:02:37,34994,1843
2024-12-18 15:02:37,34999,1844
2024-12-18 15:02:37,34996,1843
2024-12-18 15:02:37,34994,1841
2024-12-18 15:02:37,34994,1840
2024-12-18 15:02:37,34994,1839
2024-12-18 15:02:37,34993,1837
2024-12-18 15:02:37,34993,1836
2024-12-18 15:02:37,34993,1836
2024-12-18 15:02:37,34992,1836
2024-12-18 15:02:37,34992,1836
2024-12-18 15:02:37,34993,1836
2024-12-18 15:02:37,34993,1836
2024-12-18 15:02:37,34993,1836
2024-12-18 15:02:37,34993,1837
2024-12-18 15:02:37,34993,1837
2024-12-18 15:02:37,34994,1838
2024-12-18 15:02:37,34993,1838
2024-12-18 15:02:37,34993,1838
2024-12-18 15:02:37,34993,1839
2024-12-18 15:02:37,34994,1839
2024-12-18 15:02:37,34994,1838
2024-12-18 15:02:37,34994,1838
2024-12-18 15:02:37,34993,1839
2024-12-18 15:02:37,34994,1838
2024-12-18 15:02:37,34994,1838
2024-12-18 15:02:37,34993,1838
2024-12-18 15:02:37,34997,1843
2024-12-18 15:02:37,34995,1842
2024-12-18 15:02:37,34995,1844
2024-12-18 15:02:37,34994,1845
2024-12-18 15:02:37,34994,1845
2024-12-18 15:02:37,34993,1845
2024-12-18 15:02:37,34993,1845
2024-12-18 15:02:37,34993,1847
2024-12-18 15:02:37,34993,1848
2024-12-18 15:02:37,34993,1849
2024-12-18 15:02:37,34994,1850
2024-12-18 15:02:37,34994,1852
2024-12-18 15:02:37,34994,1852
2024-12-18 15:02:37,34994,1853
2024-12-18 15:02:37,34994,1854
2024-12-18 15:02:37,34995,1854
2024-12-18 15:02:37,34994,1855
2024-12-18 15:02:37,34994,1856
2024-12-18 15:02:37,34994,1856
2024-12-18 15:02:37,34994,1857
2024-12-18 15:02:37,34995,1857
2024-12-18 15:02:37,34995,1856
2024-12-18 15:02:37,34995,1857
2024-12-18 15:02:37,34995,1857
2024-12-18 15:02:37,34995,1857
2024-12-18 15:02:37,34994,1858
2024-12-18 15:02:37,35000,1861
2024-12-18 15:02:37,34997,1860
2024-12-18 15:02:37,34995,1860
2024-12-18 15:02:37,34995,1861
2024-12-18 15:02:37,34995,1862
2024-12-18 15:02:37,34994,1862
2024-12-18 15:02:37,34994,1862
2024-12-18 15:02:37,34994,1862
2024-12-18 15:02:37,34994,1862
2024-12-18 15:02:37,34994,1863
2024-12-18 15:02:37,34995,1863
2024-12-18 15:02:37,34995,1864
2024-12-18 15:02:37,34994,1863
2024-12-18 15:02:37,34994,1863
2024-12-18 15:02:37,34995,1864
2024-12-18 15:02:37,34995,1863
2024-12-18 15:02:37,34995,1863
2024-12-18 15:02:37,34994,1863
2024-12-18 15:02:37,34995,1862
2024-12-18 15:02:37,34995,1861
2024-12-18 15:02:37,34995,1860
2024-12-18 15:02:37,34995,1859
2024-12-18 15:02:37,34995,1858
2024-12-18 15:02:37,34995,1857
2024-12-18 15:02:37,34995,1855
2024-12-18 15:02:37,34995,1854
2024-12-18 15:02:37,34998,1854
2024-12-18 15:02:37,34997,1852
2024-12-18 15:02:37,34996,1849
2024-12-18 15:02:37,34996,1847
2024-12-18 15:02:37,34996,1845
2024-12-18 15:02:37,34995,1843
2024-12-18 15:02:37,34995,1842
2024-12-18 15:02:37,34994,1840
2024-12-18 15:02:37,34995,1839
2024-12-18 15:02:37,34995,1838
2024-12-18 15:02:37,34995,1838
2024-12-18 15:02:37,34995,1837
2024-12-18 15:02:37,34995,1835
2024-12-18 15:02:37,34995,1836
2024-12-18 15:02:37,34996,1835
2024-12-18 15:02:37,34996,1833
2024-12-18 15:02:37,34995,1832
2024-12-18 15:02:37,34996,1830
2024-12-18 15:02:37,34996,1828
2024-12-18 15:02:37,34996,1825
2024-12-18 15:02:37,34996,1824
2024-12-18 15:02:37,34996,1822
2024-12-18 15:02:37,34996,1820
2024-12-18 15:02:37,34996,1817
2024-12-18 15:02:37,34996,1815
2024-12-18 15:02:37,34996,1814
2024-12-18 15:02:37,34997,1814
2024-12-18 15:02:37,34998,1811
2024-12-18 15:02:37,34996,1808
2024-12-18 15:02:37,34996,1806
2024-12-18 15:02:37,34996,1806
2024-12-18 15:02:37,34995,1804
2024-12-18 15:02:37,34995,1804
2024-12-18 15:02:37,34995,1804
2024-12-18 15:02:37,34995,1804
2024-12-18 15:02:37,34995,1805
2024-12-18 15:02:37,34995,1806
2024-12-18 15:02:37,34995,1805
2024-12-18 15:02:37,34995,1807
2024-12-18 15:02:37,34996,1808
2024-12-18 15:02:37,34996,1808
2024-12-18 15:02:37,34996,1810
2024-12-18 15:02:37,34996,1811
2024-12-18 15:02:37,34996,1813
2024-12-18 15:02:37,34996,1815
2024-12-18 15:02:37,34996,1817
2024-12-18 15:02:37,34996,1819
2024-12-18 15:02:37,34996,1820
2024-12-18 15:02:37,34997,1823
2024-12-18 15:02:37,34997,1823
2024-12-18 15:02:37,34996,1825
2024-12-18 15:02:37,34996,1826
2024-12-18 15:02:37,35002,1829
2024-12-18 15:02:37,34998,1830
2024-12-18 15:02:37,34997,1831
2024-12-18 15:02:37,34997,1831
2024-12-18 15:02:37,34997,1832
2024-12-18 15:02:37,34996,1832
2024-12-18 15:02:37,34996,1832
2024-12-18 15:02:37,34996,1834
2024-12-18 15:02:37,34996,1834
2024-12-18 15:02:37,34996,1834
2024-12-18 15:02:37,34997,1836
2024-12-18 15:02:37,34997,1838
2024-12-18 15:02:37,34997,1840
2024-12-18 15:02:37,34997,1842
2024-12-18 15:02:37,34997,1845
2024-12-18 15:02:37,34997,1847
2024-12-18 15:02:37,34997,1850
2024-12-18 15:02:37,34997,1855
2024-12-18 15:02:37,34998,1858
2024-12-18 15:02:37,34998,1863
2024-12-18 15:02:37,34998,1867
2024-12-18 15:02:37,34998,1871
2024-12-18 15:02:37,34998,1876
2024-12-18 15:02:37,34997,1879
2024-12-18 15:02:37,34997,1883
2024-12-18 15:02:37,34998,1887
2024-12-18 15:02:37,35004,1892
2024-12-18 15:02:37,35000,1897
2024-12-18 15:02:37,34999,1900
2024-12-18 15:02:37,34998,1904
2024-12-18 15:02:37,34999,1909
2024-12-18 15:02:37,34997,1911
2024-12-18 15:02:37,34997,1915
2024-12-18 15:02:37,34997,1919
2024-12-18 15:02:37,34998,1922
2024-12-18 15:02:37,34998,1925
2024-12-18 15:02:37,34998,1928
2024-12-18 15:02:37,34998,1930
2024-12-18 15:02:37,34998,1931
2024-12-18 15:02:37,34998,1933
2024-12-18 15:02:37,34998,1935
2024-12-18 15:02:37,34998,1935
2024-12-18 15:02:37,34998,1937
2024-12-18 15:02:37,34998,1938
2024-12-18 15:02:37,34999,1939
2024-12-18 15:02:37,34998,1940
2024-12-18 15:02:37,34998,1941
2024-12-18 15:02:37,34999,1941
2024-12-18 15:02:37,34999,1943
2024-12-18 15:02:37,34998,1943
2024-12-18 15:02:37,34998,1944
2024-12-18 15:02:37,34999,1944
2024-12-18 15:02:37,35002,1946
2024-12-18 15:02:37,35000,1946
2024-12-18 15:02:37,34999,1944
2024-12-18 15:02:37,34999,1946
2024-12-18 15:02:37,34999,1945
2024-12-18 15:02:37,34998,1943
2024-12-18 15:02:37,34997,1941
2024-12-18 15:02:37,34998,1942
2024-12-18 15:02:37,34998,1941
2024-12-18 15:02:37,34999,1940
2024-12-18 15:02:37,34999,1939
2024-12-18 15:02:37,34998,1938
2024-12-18 15:02:37,34999,1937
2024-12-18 15:02:37,34999,1936
2024-12-18 15:02:37,34998,1935
2024-12-18 15:02:37,34999,1934
2024-12-18 15:02:37,34999,1934
2024-12-18 15:02:37,35000,1932
2024-12-18 15:02:37,34999,1932
2024-12-18 15:02:37,34999,1931
2024-12-18 15:02:37,34999,1930
2024-12-18 15:02:37,34999,1930
2024-12-18 15:02:37,34999,1929
2024-12-18 15:02:37,34999,1927
2024-12-18 15:02:37,34999,1927
2024-12-18 15:02:37,35000,1926
2024-12-18 15:02:37,35002,1927
2024-12-18 15:02:37,35001,1926
2024-12-18 15:02:37,35000,1924
2024-12-18 15:02:37,34999,1922
2024-12-18 15:02:37,34999,1920
2024-12-18 15:02:37,34998,1918
2024-12-18 15:02:37,34999,1916
2024-12-18 15:02:37,34999,1914
2024-12-18 15:02:37,34999,1914
2024-12-18 15:02:37,35000,1912
2024-12-18 15:02:37,35000,1910
2024-12-18 15:02:37,35000,1909
2024-12-18 15:02:37,35000,1908
2024-12-18 15:02:37,35000,1907
2024-12-18 15:02:37,35000,1907
2024-12-18 15:02:37,35000,1905
2024-12-18 15:02:37,35000,1904
2024-12-18 15:02:37,35001,1904
2024-12-18 15:02:37,35001,1901
2024-12-18 15:02:37,35000,1900
2024-12-18 15:02:37,35001,1899
2024-12-18 15:02:37,35001,1898
2024-12-18 15:02:37,35000,1897
2024-12-18 15:02:37,35000,1895
2024-12-18 15:02:37,35001,1895
2024-12-18 15:02:37,35001,1892
2024-12-18 15:02:37,35004,1893
2024-12-18 15:02:37,35002,1892
2024-12-18 15:02:37,35001,1890
2024-12-18 15:02:37,35002,1890
2024-12-18 15:02:37,35001,1889
2024-12-18 15:02:37,35000,1887
2024-12-18 15:02:37,35000,1888
2024-12-18 15:02:37,35000,1887
2024-12-18 15:02:37,35000,1887
2024-12-18 15:02:37,35001,1888
2024-12-18 15:02:37,35000,1886
2024-12-18 15:02:37,35001,1886
2024-12-18 15:02:37,35001,1886
2024-12-18 15:02:37,35001,1885
2024-12-18 15:02:37,35000,1885
2024-12-18 15:02:37,35001,1886
2024-12-18 15:02:37,35001,1885
2024-12-18 15:02:37,35002,1884
2024-12-18 15:02:37,35001,1884
2024-12-18 15:02:37,35002,1884
2024-12-18 15:02:37,35002,1884
2024-12-18 15:02:37,35002,1883
2024-12-18 15:02:37,35001,1882
2024-12-18 15:02:37,35002,1883
2024-12-18 15:02:37,35002,1883
2024-12-18 15:02:37,35002,1882
2024-12-18 15:02:37,35002,1881
2024-12-18 15:02:37,35002,1881
2024-12-18 15:02:37,35002,1881
2024-12-18 15:02:37,35002,1881
2024-12-18 15:02:37,35002,1879
2024-12-18 15:02:37,35002,1879
2024-12-18 15:02:37,35002,1879
2024-12-18 15:02:37,35002,1879
2024-12-18 15:02:37,35002,1878
2024-12-18 15:02:37,35002,1876
2024-12-18 15:02:37,35003,1875
2024-12-18 15:02:37,35003,1874
2024-12-18 15:02:37,35002,1871
2024-12-18 15:02:37,35002,1870
2024-12-18 15:02:37,35003,1868
2024-12-18 15:02:37,35003,1866
2024-12-18 15:02:37,35003,1863
2024-12-18 15:02:37,35003,1862
2024-12-18 15:02:37,35003,1860
2024-12-18 15:02:37,35003,1860
2024-12-18 15:02:37,35003,1859
2024-12-18 15:02:37,35002,1858
2024-12-18 15:02:37,35003,1857
2024-12-18 15:02:37,35003,1858
2024-12-18 15:02:37,35003,1858
2024-12-18 15:02:37,35003,1859
2024-12-18 15:02:37,35009,1861
2024-12-18 15:02:37,35005,1862
2024-12-18 15:02:37,35004,1863
2024-12-18 15:02:37,35003,1864
2024-12-18 15:02:37,35003,1866
2024-12-18 15:02:37,35002,1866
2024-12-18 15:02:37,35002,1868
2024-12-18 15:02:37,35002,1868
2024-12-18 15:02:37,35002,1870
2024-12-18 15:02:37,35002,1873
2024-12-18 15:02:37,35003,1874
2024-12-18 15:02:37,35003,1876
2024-12-18 15:02:37,35002,1879
2024-12-18 15:02:37,35003,1881
2024-12-18 15:02:37,35003,1882
2024-12-18 15:02:37,35003,1884
2024-12-18 15:02:37,35003,1885
2024-12-18 15:02:37,35003,1885
2024-12-18 15:02:37,35003,1886
2024-12-18 15:02:37,35004,1888
2024-12-18 15:02:37,35004,1888
2024-12-18 15:02:37,35003,1890
2024-12-18 15:02:37,35003,1891
2024-12-18 15:02:37,35003,1892
2024-12-18 15:02:37,35004,1892
2024-12-18 15:02:37,35004,1894
2024-12-18 15:02:37,35005,1900
2024-12-18 15:02:37,35008,1899
2024-12-18 15:02:37,35004,1899
2024-12-18 15:02:37,35004,1900
2024-12-18 15:02:37,35003,1900
2024-12-18 15:02:37,35003,1900
2024-12-18 15:02:37,35003,1902
2024-12-18 15:02:37,35003,1904
2024-12-18 15:02:37,35003,1904
2024-12-18 15:02:37,35004,1906
2024-12-18 15:02:37,35004,1906
2024-12-18 15:02:37,35004,1906
2024-12-18 15:02:37,35004,1907
2024-12-18 15:02:37,35004,1908
2024-12-18 15:02:37,35004,1909
2024-12-18 15:02:37,35005,1910
2024-12-18 15:02:37,35004,1909
2024-12-18 15:02:37,35004,1908
2024-12-18 15:02:37,35005,1909
2024-12-18 15:02:37,35005,1909
2024-12-18 15:02:37,35004,1908
2024-12-18 15:02:37,35004,1908
2024-12-18 15:02:37,35005,1907
2024-12-18 15:02:37,35005,1904
2024-12-18 15:02:37,35005,1903
2024-12-18 15:02:37,35005,1902
2024-12-18 15:02:37,35008,1902
2024-12-18 15:02:37,35007,1900
2024-12-18 15:02:37,35006,1897
2024-12-18 15:02:37,35005,1895
2024-12-18 15:02:37,35005,1893
2024-12-18 15:02:37,35004,1890
2024-12-18 15:02:37,35004,1887
2024-12-18 15:02:37,35004,1885
2024-12-18 15:02:38,35005,1883
2024-12-18 15:02:38,35004,1881
2024-12-18 15:02:38,35004,1881
2024-12-18 15:02:38,35004,1880
2024-12-18 15:02:38,35004,1879
2024-12-18 15:02:38,35005,1878
2024-12-18 15:02:38,35005,1878
2024-12-18 15:02:38,35005,1878
2024-12-18 15:02:38,35005,1878
2024-12-18 15:02:38,35005,1877
2024-12-18 15:02:38,35005,1877
2024-12-18 15:02:38,35006,1878
2024-12-18 15:02:38,35005,1877
2024-12-18 15:02:38,35005,1879
2024-12-18 15:02:38,35006,1880
2024-12-18 15:02:38,35006,1881
2024-12-18 15:02:38,35006,1882
2024-12-18 15:02:38,35006,1881
2024-12-18 15:02:38,35009,1885
2024-12-18 15:02:38,35008,1886
2024-12-18 15:02:38,35006,1886
2024-12-18 15:02:38,35006,1888
2024-12-18 15:02:38,35006,1888
2024-12-18 15:02:38,35005,1888
2024-12-18 15:02:38,35005,1888
2024-12-18 15:02:38,35005,1888
2024-12-18 15:02:38,35005,1889
2024-12-18 15:02:38,35006,1889
2024-12-18 15:02:38,35006,1889
2024-12-18 15:02:38,35005,1890
2024-12-18 15:02:38,35006,1890
2024-12-18 15:02:38,35006,1889
2024-12-18 15:02:38,35006,1888
2024-12-18 15:02:38,35006,1888
2024-12-18 15:02:38,35006,1888
2024-12-18 15:02:38,35006,1887
2024-12-18 15:02:38,35007,1886
2024-12-18 15:02:38,35006,1885
2024-12-18 15:02:38,35006,1884
2024-12-18 15:02:38,35006,1883
2024-12-18 15:02:38,35007,1883
2024-12-18 15:02:38,35007,1882
2024-12-18 15:02:38,35007,1880
2024-12-18 15:02:38,35007,1879
2024-12-18 15:02:38,35011,1879
2024-12-18 15:02:38,35010,1878
2024-12-18 15:02:38,35006,1876
2024-12-18 15:02:38,35007,1874
2024-12-18 15:02:38,35007,1871
2024-12-18 15:02:38,35006,1868
2024-12-18 15:02:38,35005,1866
2024-12-18 15:02:38,35006,1865
2024-12-18 15:02:38,35006,1864
2024-12-18 15:02:38,35006,1862
2024-12-18 15:02:38,35007,1861
2024-12-18 15:02:38,35006,1859
2024-12-18 15:02:38,35006,1858
2024-12-18 15:02:38,35006,1856
2024-12-18 15:02:38,35006,1855
2024-12-18 15:02:38,35007,1853
2024-12-18 15:02:38,35006,1851
2024-12-18 15:02:38,35007,1849
2024-12-18 15:02:38,35007,1847
2024-12-18 15:02:38,35006,1843
2024-12-18 15:02:38,35006,1841
2024-12-18 15:02:38,35007,1840
2024-12-18 15:02:38,35007,1837
2024-12-18 15:02:38,35007,1834
2024-12-18 15:02:38,35007,1832
2024-12-18 15:02:38,35007,1829
2024-12-18 15:02:38,35010,1829
2024-12-18 15:02:38,35009,1829
2024-12-18 15:02:38,35007,1826
2024-12-18 15:02:38,35007,1825
2024-12-18 15:02:38,35007,1824
2024-12-18 15:02:38,35006,1823
2024-12-18 15:02:38,35007,1823
2024-12-18 15:02:38,35006,1824
2024-12-18 15:02:38,35007,1824
2024-12-18 15:02:38,35007,1824
2024-12-18 15:02:38,35007,1824
2024-12-18 15:02:38,35007,1824
2024-12-18 15:02:38,35007,1825
2024-12-18 15:02:38,35007,1825
2024-12-18 15:02:38,35007,1826
2024-12-18 15:02:38,35008,1827
2024-12-18 15:02:38,35007,1828
2024-12-18 15:02:38,35008,1828
2024-12-18 15:02:38,35008,1829
2024-12-18 15:02:38,35007,1830
2024-12-18 15:02:38,35008,1830
2024-12-18 15:02:38,35008,1830
2024-12-18 15:02:38,35008,1831
2024-12-18 15:02:38,35008,1831
2024-12-18 15:02:38,35008,1831
2024-12-18 15:02:38,35008,1832
2024-12-18 15:02:38,35010,1837
2024-12-18 15:02:38,35009,1836
2024-12-18 15:02:38,35008,1835
2024-12-18 15:02:38,35008,1836
2024-12-18 15:02:38,35009,1837
2024-12-18 15:02:38,35008,1836
2024-12-18 15:02:38,35007,1838
2024-12-18 15:02:38,35007,1839
2024-12-18 15:02:38,35008,1839
2024-12-18 15:02:38,35008,1840
2024-12-18 15:02:38,35007,1841
2024-12-18 15:02:38,35008,1843
2024-12-18 15:02:38,35008,1844
2024-12-18 15:02:38,35008,1845
2024-12-18 15:02:38,35008,1846
2024-12-18 15:02:38,35008,1847
2024-12-18 15:02:38,35008,1848
2024-12-18 15:02:38,35009,1848
2024-12-18 15:02:38,35008,1850
2024-12-18 15:02:38,35009,1851
2024-12-18 15:02:38,35008,1853
2024-12-18 15:02:38,35009,1854
2024-12-18 15:02:38,35009,1855
2024-12-18 15:02:38,35009,1856
2024-12-18 15:02:38,35009,1858
2024-12-18 15:02:38,35009,1860
2024-12-18 15:02:38,35011,1865
2024-12-18 15:02:38,35008,1864
2024-12-18 15:02:38,35009,1864
2024-12-18 15:02:38,35010,1864
2024-12-18 15:02:38,35010,1866
2024-12-18 15:02:38,35008,1866
2024-12-18 15:02:38,35008,1867
2024-12-18 15:02:38,35008,1868
2024-12-18 15:02:38,35009,1868
2024-12-18 15:02:38,35009,1868
2024-12-18 15:02:38,35009,1869
2024-12-18 15:02:38,35009,1869
2024-12-18 15:02:38,35009,1871
2024-12-18 15:02:38,35009,1871
2024-12-18 15:02:38,35009,1871
2024-12-18 15:02:38,35009,1872
2024-12-18 15:02:38,35010,1871
2024-12-18 15:02:38,35010,1871
2024-12-18 15:02:38,35009,1871
2024-12-18 15:02:38,35009,1870
2024-12-18 15:02:38,35010,1870
2024-12-18 15:02:38,35010,1870
2024-12-18 15:02:38,35010,1870
2024-12-18 15:02:38,35009,1870
2024-12-18 15:02:38,35010,1869
2024-12-18 15:02:38,35010,1869
2024-12-18 15:02:38,35012,1871
2024-12-18 15:02:38,35013,1871
2024-12-18 15:02:38,35010,1869
2024-12-18 15:02:38,35010,1868
2024-12-18 15:02:38,35010,1867
2024-12-18 15:02:38,35009,1866
2024-12-18 15:02:38,35009,1864
2024-12-18 15:02:38,35009,1863
2024-12-18 15:02:38,35009,1864
2024-12-18 15:02:38,35009,1863
2024-12-18 15:02:38,35009,1863
2024-12-18 15:02:38,35009,1864
2024-12-18 15:02:38,35009,1863
2024-12-18 15:02:38,35010,1863
2024-12-18 15:02:38,35010,1862
2024-12-18 15:02:38,35010,1862
2024-12-18 15:02:38,35010,1861
2024-12-18 15:02:38,35010,1860
2024-12-18 15:02:38,35009,1858
2024-12-18 15:02:38,35009,1857
2024-12-18 15:02:38,35011,1856
2024-12-18 15:02:38,35010,1855
2024-12-18 15:02:38,35010,1854
2024-12-18 15:02:38,35010,1853
2024-12-18 15:02:38,35010,1852
2024-12-18 15:02:38,35010,1852
2024-12-18 15:02:38,35016,1857
2024-12-18 15:02:38,35014,1853
2024-12-18 15:02:38,35010,1852
2024-12-18 15:02:38,35010,1852
2024-12-18 15:02:38,35011,1851
2024-12-18 15:02:38,35009,1849
2024-12-18 15:02:38,35009,1848
2024-12-18 15:02:38,35010,1847
2024-12-18 15:02:38,35010,1847
2024-12-18 15:02:38,35009,1845
2024-12-18 15:02:38,35010,1844
2024-12-18 15:02:38,35010,1843
2024-12-18 15:02:38,35010,1842
2024-12-18 15:02:38,35010,1841
2024-12-18 15:02:38,35010,1840
2024-12-18 15:02:38,35011,1841
2024-12-18 15:02:38,35011,1840
2024-12-18 15:02:38,35010,1840
2024-12-18 15:02:38,35010,1841
2024-12-18 15:02:38,35011,1841
2024-12-18 15:02:38,35011,1842
2024-12-18 15:02:38,35011,1843
2024-12-18 15:02:38,35011,1844
2024-12-18 15:02:38,35011,1845
2024-12-18 15:02:38,35011,1846
2024-12-18 15:02:38,35011,1847
2024-12-18 15:02:38,35013,1851
2024-12-18 15:02:38,35013,1849
2024-12-18 15:02:38,35012,1849
2024-12-18 15:02:38,35012,1850
2024-12-18 15:02:38,35011,1850
2024-12-18 15:02:38,35010,1851
2024-12-18 15:02:38,35010,1852
2024-12-18 15:02:38,35011,1852
2024-12-18 15:02:38,35010,1852
2024-12-18 15:02:38,35010,1852
2024-12-18 15:02:38,35011,1852
2024-12-18 15:02:38,35011,1852
2024-12-18 15:02:38,35011,1852
2024-12-18 15:02:38,35011,1852
2024-12-18 15:02:38,35011,1852
2024-12-18 15:02:38,35011,1852
2024-12-18 15:02:38,35012,1852
2024-12-18 15:02:38,35011,1852
2024-12-18 15:02:38,35011,1852
2024-12-18 15:02:38,35012,1852
2024-12-18 15:02:38,35012,1853
2024-12-18 15:02:38,35012,1854
2024-12-18 15:02:38,35012,1854
2024-12-18 15:02:38,35012,1856
2024-12-18 15:02:38,35012,1856
2024-12-18 15:02:38,35012,1857
2024-12-18 15:02:38,35013,1862
2024-12-18 15:02:38,35015,1862
2024-12-18 15:02:38,35012,1863
2024-12-18 15:02:38,35012,1865
2024-12-18 15:02:38,35012,1867
2024-12-18 15:02:38,35011,1869
2024-12-18 15:02:38,35011,1872
2024-12-18 15:02:38,35011,1875
2024-12-18 15:02:38,35011,1876
2024-12-18 15:02:38,35011,1879
2024-12-18 15:02:38,35012,1881
2024-12-18 15:02:38,35012,1883
2024-12-18 15:02:38,35012,1885
2024-12-18 15:02:38,35012,1887
2024-12-18 15:02:38,35012,1889
2024-12-18 15:02:38,35012,1891
2024-12-18 15:02:38,35012,1894
2024-12-18 15:02:38,35012,1895
2024-12-18 15:02:38,35012,1899
2024-12-18 15:02:38,35012,1901
2024-12-18 15:02:38,35012,1905
2024-12-18 15:02:38,35012,1908
2024-12-18 15:02:38,35012,1910
2024-12-18 15:02:38,35013,1913
2024-12-18 15:02:38,35013,1916
2024-12-18 15:02:38,35012,1919
2024-12-18 15:02:38,35013,1928
2024-12-18 15:02:38,35014,1927
2024-12-18 15:02:38,35013,1928
2024-12-18 15:02:38,35013,1929
2024-12-18 15:02:38,35012,1930
2024-12-18 15:02:38,35012,1930
2024-12-18 15:02:38,35011,1931
2024-12-18 15:02:38,35011,1931
2024-12-18 15:02:38,35011,1932
2024-12-18 15:02:38,35012,1931
2024-12-18 15:02:38,35012,1932
2024-12-18 15:02:38,35012,1933
2024-12-18 15:02:38,35012,1932
2024-12-18 15:02:38,35012,1934
2024-12-18 15:02:38,35012,1934
2024-12-18 15:02:38,35012,1934
2024-12-18 15:02:38,35012,1935
2024-12-18 15:02:38,35012,1935
2024-12-18 15:02:38,35012,1935
2024-12-18 15:02:38,35012,1936
2024-12-18 15:02:38,35012,1936
2024-12-18 15:02:38,35012,1937
2024-12-18 15:02:38,35012,1938
2024-12-18 15:02:38,35013,1938
2024-12-18 15:02:38,35012,1939
2024-12-18 15:02:38,35012,1939
2024-12-18 15:02:38,35012,1941
2024-12-18 15:02:38,35015,1940
2024-12-18 15:02:38,35013,1940
2024-12-18 15:02:38,35013,1939
2024-12-18 15:02:38,35013,1940
2024-12-18 15:02:38,35012,1939
2024-12-18 15:02:38,35012,1939
2024-12-18 15:02:38,35011,1938
2024-12-18 15:02:38,35011,1937
2024-12-18 15:02:38,35012,1937
2024-12-18 15:02:38,35012,1937
2024-12-18 15:02:38,35012,1936
2024-12-18 15:02:38,35012,1935
2024-12-18 15:02:38,35013,1933
2024-12-18 15:02:38,35013,1931
2024-12-18 15:02:38,35013,1930
2024-12-18 15:02:38,35012,1930
2024-12-18 15:02:38,35012,1928
2024-12-18 15:02:38,35013,1929
2024-12-18 15:02:38,35013,1929
2024-12-18 15:02:38,35013,1928
2024-12-18 15:02:38,35013,1926
2024-12-18 15:02:38,35013,1927
2024-12-18 15:02:38,35013,1926
2024-12-18 15:02:38,35013,1924
2024-12-18 15:02:38,35013,1923
2024-12-18 15:02:38,35016,1926
2024-12-18 15:02:38,35015,1921
2024-12-18 15:02:38,35013,1920
2024-12-18 15:02:38,35014,1919
2024-12-18 15:02:38,35013,1918
2024-12-18 15:02:38,35013,1917
2024-12-18 15:02:38,35012,1915
2024-12-18 15:02:38,35012,1914
2024-12-18 15:02:38,35012,1914
2024-12-18 15:02:38,35013,1912
2024-12-18 15:02:38,35013,1912
2024-12-18 15:02:38,35013,1911
2024-12-18 15:02:38,35013,1910
2024-12-18 15:02:38,35014,1911
2024-12-18 15:02:38,35014,1909
2024-12-18 15:02:38,35013,1908
2024-12-18 15:02:38,35013,1907
2024-12-18 15:02:38,35014,1907
2024-12-18 15:02:38,35014,1908
2024-12-18 15:02:38,35014,1909
2024-12-18 15:02:38,35013,1908
2024-12-18 15:02:38,35014,1908
2024-12-18 15:02:38,35014,1908
2024-12-18 15:02:38,35014,1907
2024-12-18 15:02:38,35014,1906
2024-12-18 15:02:38,35014,1906
2024-12-18 15:02:38,35020,1911
2024-12-18 15:02:38,35018,1907
2024-12-18 15:02:38,35014,1906
2024-12-18 15:02:38,35014,1904
2024-12-18 15:02:38,35014,1904
2024-12-18 15:02:38,35013,1903
2024-12-18 15:02:38,35013,1902
2024-12-18 15:02:38,35013,1902
2024-12-18 15:02:38,35013,1901
2024-12-18 15:02:38,35013,1901
2024-12-18 15:02:38,35013,1900
2024-12-18 15:02:38,35013,1899
2024-12-18 15:02:38,35013,1900
2024-12-18 15:02:38,35014,1900
2024-12-18 15:02:38,35013,1899
2024-12-18 15:02:38,35014,1898
2024-12-18 15:02:38,35013,1897
2024-12-18 15:02:38,35014,1897
2024-12-18 15:02:38,35014,1897
2024-12-18 15:02:38,35014,1896
2024-12-18 15:02:38,35014,1895
2024-12-18 15:02:38,35014,1895
2024-12-18 15:02:38,35014,1895
2024-12-18 15:02:38,35014,1894
2024-12-18 15:02:38,35014,1893
2024-12-18 15:02:38,35014,1893
2024-12-18 15:02:38,35017,1895
2024-12-18 15:02:38,35018,1893
2024-12-18 15:02:38,35014,1892
2024-12-18 15:02:38,35014,1892
2024-12-18 15:02:38,35014,1893
2024-12-18 15:02:38,35013,1893
2024-12-18 15:02:38,35013,1893
2024-12-18 15:02:38,35013,1893
2024-12-18 15:02:38,35013,1894
2024-12-18 15:02:38,35013,1895
2024-12-18 15:02:38,35013,1896
2024-12-18 15:02:38,35013,1897
2024-12-18 15:02:38,35014,1897
2024-12-18 15:02:38,35014,1899
2024-12-18 15:02:38,35014,1900
2024-12-18 15:02:38,35014,1900
2024-12-18 15:02:38,35014,1901
2024-12-18 15:02:38,35014,1901
2024-12-18 15:02:38,35014,1902
2024-12-18 15:02:38,35014,1903
2024-12-18 15:02:38,35014,1904
2024-12-18 15:02:38,35014,1904
2024-12-18 15:02:38,35014,1905
2024-12-18 15:02:38,35014,1905
2024-12-18 15:02:38,35014,1906
2024-12-18 15:02:38,35014,1907
2024-12-18 15:02:38,35020,1909
2024-12-18 15:02:38,35016,1910
2024-12-18 15:02:38,35015,1910
2024-12-18 15:02:38,35014,1910
2024-12-18 15:02:38,35015,1910
2024-12-18 15:02:38,35013,1909
2024-12-18 15:02:38,35013,1911
2024-12-18 15:02:38,35013,1911
2024-12-18 15:02:38,35014,1911
2024-12-18 15:02:38,35014,1913
2024-12-18 15:02:38,35013,1914
2024-12-18 15:02:38,35014,1915
2024-12-18 15:02:38,35014,1916
2024-12-18 15:02:38,35014,1916
2024-12-18 15:02:38,35014,1916
2024-12-18 15:02:38,35014,1916
2024-12-18 15:02:38,35014,1917
2024-12-18 15:02:38,35014,1917
2024-12-18 15:02:38,35015,1917
2024-12-18 15:02:38,35014,1918
2024-12-18 15:02:38,35015,1919
2024-12-18 15:02:38,35014,1920
2024-12-18 15:02:38,35014,1919
2024-12-18 15:02:38,35014,1920
2024-12-18 15:02:38,35014,1920
2024-12-18 15:02:38,35014,1920
2024-12-18 15:02:38,35020,1923
2024-12-18 15:02:38,35016,1922
2024-12-18 15:02:38,35015,1921
2024-12-18 15:02:38,35015,1922
2024-12-18 15:02:38,35014,1922
2024-12-18 15:02:38,35013,1921
2024-12-18 15:02:38,35013,1921
2024-12-18 15:02:38,35013,1920
2024-12-18 15:02:38,35013,1919
2024-12-18 15:02:38,35014,1918
2024-12-18 15:02:38,35014,1916
2024-12-18 15:02:38,35014,1915
2024-12-18 15:02:38,35015,1913
2024-12-18 15:02:38,35014,1911
2024-12-18 15:02:38,35013,1909
2024-12-18 15:02:38,35014,1908
2024-12-18 15:02:38,35014,1906
2024-12-18 15:02:38,35015,1904
2024-12-18 15:02:38,35014,1902
2024-12-18 15:02:38,35014,1899
2024-12-18 15:02:38,35014,1897
2024-12-18 15:02:38,35015,1895
2024-12-18 15:02:38,35014,1892
2024-12-18 15:02:38,35014,1891
2024-12-18 15:02:38,35014,1889
2024-12-18 15:02:38,35014,1886
2024-12-18 15:02:38,35017,1888
2024-12-18 15:02:38,35016,1885
2024-12-18 15:02:38,35015,1883
2024-12-18 15:02:38,35014,1882
2024-12-18 15:02:38,35014,1879
2024-12-18 15:02:38,35013,1877
2024-12-18 15:02:38,35013,1876
2024-12-18 15:02:38,35013,1873
2024-12-18 15:02:38,35014,1872
2024-12-18 15:02:38,35014,1870
2024-12-18 15:02:38,35014,1868
2024-12-18 15:02:38,35014,1866
2024-12-18 15:02:38,35014,1865
2024-12-18 15:02:38,35014,1864
2024-12-18 15:02:38,35014,1862
2024-12-18 15:02:38,35014,1862
2024-12-18 15:02:38,35014,1861
2024-12-18 15:02:38,35014,1859
2024-12-18 15:02:38,35014,1859
2024-12-18 15:02:38,35014,1858
2024-12-18 15:02:38,35014,1857
2024-12-18 15:02:38,35014,1857
2024-12-18 15:02:38,35014,1856
2024-12-18 15:02:38,35014,1856
2024-12-18 15:02:38,35014,1856
2024-12-18 15:02:38,35014,1855
2024-12-18 15:02:38,35020,1858
2024-12-18 15:02:38,35016,1857
2024-12-18 15:02:38,35015,1856
2024-12-18 15:02:38,35015,1856
2024-12-18 15:02:38,35014,1856
2024-12-18 15:02:38,35013,1855
2024-12-18 15:02:38,35013,1855
2024-12-18 15:02:38,35014,1856
2024-12-18 15:02:38,35014,1856
2024-12-18 15:02:38,35013,1857
2024-12-18 15:02:38,35014,1858
2024-12-18 15:02:38,35013,1857
2024-12-18 15:02:38,35014,1858
2024-12-18 15:02:38,35013,1858
2024-12-18 15:02:38,35014,1858
2024-12-18 15:02:38,35014,1859
2024-12-18 15:02:38,35014,1858
2024-12-18 15:02:38,35014,1857
2024-12-18 15:02:38,35014,1857
2024-12-18 15:02:38,35014,1857
2024-12-18 15:02:38,35014,1857
2024-12-18 15:02:38,35014,1858
2024-12-18 15:02:38,35014,1858
2024-12-18 15:02:38,35014,1860
2024-12-18 15:02:38,35014,1861
2024-12-18 15:02:38,35014,1861
2024-12-18 15:02:38,35019,1865
2024-12-18 15:02:38,35016,1864
2024-12-18 15:02:38,35015,1863
2024-12-18 15:02:38,35015,1862
2024-12-18 15:02:38,35014,1862
2024-12-18 15:02:38,35013,1860
2024-12-18 15:02:38,35013,1858
2024-12-18 15:02:38,35013,1857
2024-12-18 15:02:38,35014,1855
2024-12-18 15:02:38,35013,1854
2024-12-18 15:02:38,35014,1853
2024-12-18 15:02:38,35014,1852
2024-12-18 15:02:38,35014,1851
2024-12-18 15:02:38,35014,1851
2024-12-18 15:02:38,35014,1852
2024-12-18 15:02:38,35014,1851
2024-12-18 15:02:38,35014,1851
2024-12-18 15:02:38,35014,1852
2024-12-18 15:02:38,35014,1853
2024-12-18 15:02:38,35014,1854
2024-12-18 15:02:38,35014,1853
2024-12-18 15:02:38,35014,1854
2024-12-18 15:02:38,35014,1854
2024-12-18 15:02:38,35014,1855
2024-12-18 15:02:38,35015,1855
2024-12-18 15:02:38,35014,1856
2024-12-18 15:02:39,35019,1858
2024-12-18 15:02:39,35016,1858
2024-12-18 15:02:39,35015,1857
2024-12-18 15:02:39,35014,1856
2024-12-18 15:02:39,35014,1857
2024-12-18 15:02:39,35013,1856
2024-12-18 15:02:39,35013,1856
2024-12-18 15:02:39,35013,1856
2024-12-18 15:02:39,35013,1857
2024-12-18 15:02:39,35013,1858
2024-12-18 15:02:39,35014,1859
2024-12-18 15:02:39,35014,1860
2024-12-18 15:02:39,35013,1861
2024-12-18 15:02:39,35013,1862
2024-12-18 15:02:39,35014,1863
2024-12-18 15:02:39,35014,1864
2024-12-18 15:02:39,35014,1864
2024-12-18 15:02:39,35014,1864
2024-12-18 15:02:39,35014,1865
2024-12-18 15:02:39,35014,1865
2024-12-18 15:02:39,35014,1866
2024-12-18 15:02:39,35013,1866
2024-12-18 15:02:39,35014,1866
2024-12-18 15:02:39,35014,1867
2024-12-18 15:02:39,35014,1867
2024-12-18 15:02:39,35014,1867
2024-12-18 15:02:39,35020,1868
2024-12-18 15:02:39,35016,1868
2024-12-18 15:02:39,35014,1868
2024-12-18 15:02:39,35014,1867
2024-12-18 15:02:39,35014,1868
2024-12-18 15:02:39,35013,1868
2024-12-18 15:02:39,35013,1868
2024-12-18 15:02:39,35013,1868
2024-12-18 15:02:39,35012,1868
2024-12-18 15:02:39,35013,1867
2024-12-18 15:02:39,35014,1867
2024-12-18 15:02:39,35013,1866
2024-12-18 15:02:39,35013,1865
2024-12-18 15:02:39,35014,1865
2024-12-18 15:02:39,35013,1864
2024-12-18 15:02:39,35014,1864
2024-12-18 15:02:39,35013,1863
2024-12-18 15:02:39,35014,1863
2024-12-18 15:02:39,35014,1863
2024-12-18 15:02:39,35014,1863
2024-12-18 15:02:39,35013,1863
2024-12-18 15:02:39,35013,1864
2024-12-18 15:02:39,35014,1864
2024-12-18 15:02:39,35014,1863
2024-12-18 15:02:39,35014,1863
2024-12-18 15:02:39,35014,1862
2024-12-18 15:02:39,35016,1863
2024-12-18 15:02:39,35015,1863
2024-12-18 15:02:39,35014,1862
2024-12-18 15:02:39,35014,1862
2024-12-18 15:02:39,35014,1862
2024-12-18 15:02:39,35012,1861
2024-12-18 15:02:39,35013,1861
2024-12-18 15:02:39,35013,1862
2024-12-18 15:02:39,35013,1862
2024-12-18 15:02:39,35013,1861
2024-12-18 15:02:39,35014,1861
2024-12-18 15:02:39,35013,1861
2024-12-18 15:02:39,35013,1861
2024-12-18 15:02:39,35014,1862
2024-12-18 15:02:39,35014,1862
2024-12-18 15:02:39,35014,1863
2024-12-18 15:02:39,35013,1863
2024-12-18 15:02:39,35014,1864
2024-12-18 15:02:39,35014,1864
2024-12-18 15:02:39,35014,1864
2024-12-18 15:02:39,35013,1863
2024-12-18 15:02:39,35013,1864
2024-12-18 15:02:39,35014,1863
2024-12-18 15:02:39,35014,1861
2024-12-18 15:02:39,35014,1860
2024-12-18 15:02:39,35014,1858
2024-12-18 15:02:39,35016,1860
2024-12-18 15:02:39,35015,1854
2024-12-18 15:02:39,35013,1852
2024-12-18 15:02:39,35013,1851
2024-12-18 15:02:39,35014,1848
