Timestamp,GSR_Value,PPG_Value
2024-12-18 19:08:38,34469,1858
2024-12-18 19:08:38,34465,1858
2024-12-18 19:08:38,34464,1858
2024-12-18 19:08:38,34467,1856
2024-12-18 19:08:38,34473,1855
2024-12-18 19:08:38,34475,1856
2024-12-18 19:08:38,34476,1853
2024-12-18 19:08:38,34475,1855
2024-12-18 19:08:39,34474,1854
2024-12-18 19:08:39,34470,1852
2024-12-18 19:08:39,34466,1854
2024-12-18 19:08:39,34466,1854
2024-12-18 19:08:39,34471,1852
2024-12-18 19:08:39,34475,1852
2024-12-18 19:08:39,34476,1854
2024-12-18 19:08:39,34477,1854
2024-12-18 19:08:39,34474,1856
2024-12-18 19:08:40,34472,1858
2024-12-18 19:08:40,34488,1869
2024-12-18 19:08:40,34467,1866
2024-12-18 19:08:41,34466,1866
2024-12-18 19:08:41,34471,1869
2024-12-18 19:08:41,34474,1874
2024-12-18 19:08:41,34472,1877
2024-12-18 19:08:42,34472,1881
2024-12-18 19:08:42,34471,1884
2024-12-18 19:08:42,34467,1888
2024-12-18 19:08:43,34464,1893
2024-12-18 19:08:43,34464,1896
2024-12-18 19:08:43,34469,1899
2024-12-18 19:08:43,34474,1903
2024-12-18 19:08:43,34475,1908
2024-12-18 19:08:43,34475,1911
2024-12-18 19:08:43,34474,1915
2024-12-18 19:08:43,34472,1919
2024-12-18 19:08:43,34467,1922
2024-12-18 19:08:43,34465,1926
2024-12-18 19:08:43,34468,1929
2024-12-18 19:08:43,34473,1934
2024-12-18 19:08:43,34476,1938
2024-12-18 19:08:43,34476,1943
2024-12-18 19:08:43,34475,1946
2024-12-18 19:08:43,34473,1950
2024-12-18 19:08:43,34470,1953
2024-12-18 19:08:43,34485,1969
2024-12-18 19:08:43,34467,1965
2024-12-18 19:08:43,34478,1978
2024-12-18 19:08:43,34473,1972
2024-12-18 19:08:43,34471,1974
2024-12-18 19:08:43,34469,1977
2024-12-18 19:08:43,34468,1980
2024-12-18 19:08:43,34466,1985
2024-12-18 19:08:43,34463,1988
2024-12-18 19:08:43,34461,1990
2024-12-18 19:08:43,34463,1994
2024-12-18 19:08:43,34470,1996
2024-12-18 19:08:43,34473,1998
2024-12-18 19:08:43,34474,2000
2024-12-18 19:08:43,34473,2001
2024-12-18 19:08:43,34472,2002
2024-12-18 19:08:43,34469,2004
2024-12-18 19:08:43,34465,2004
2024-12-18 19:08:43,34465,2005
2024-12-18 19:08:43,34469,2005
2024-12-18 19:08:43,34475,2005
2024-12-18 19:08:43,34475,2006
2024-12-18 19:08:43,34475,2006
2024-12-18 19:08:43,34474,2004
2024-12-18 19:08:43,34472,2004
2024-12-18 19:08:43,34468,2004
2024-12-18 19:08:43,34495,2013
2024-12-18 19:08:43,34493,2037
2024-12-18 19:08:43,34470,2004
2024-12-18 19:08:43,34468,1999
2024-12-18 19:08:43,34468,1998
2024-12-18 19:08:43,34467,1997
2024-12-18 19:08:43,34466,1996
2024-12-18 19:08:43,34463,1994
2024-12-18 19:08:43,34460,1992
2024-12-18 19:08:43,34461,1992
2024-12-18 19:08:43,34464,1989
2024-12-18 19:08:43,34470,1988
2024-12-18 19:08:43,34472,1985
2024-12-18 19:08:43,34473,1984
2024-12-18 19:08:43,34472,1981
2024-12-18 19:08:44,34470,1977
2024-12-18 19:08:44,34466,1975
2024-12-18 19:08:44,34464,1972
2024-12-18 19:08:45,34465,1968
2024-12-18 19:08:45,34471,1964
2024-12-18 19:08:45,34474,1961
2024-12-18 19:08:45,34475,1957
2024-12-18 19:08:46,34474,1955
2024-12-18 19:08:46,34473,1951
2024-12-18 19:08:46,34469,1947
2024-12-18 19:08:47,34466,1944
2024-12-18 19:08:47,34479,1948
2024-12-18 19:08:47,34494,1973
2024-12-18 19:08:48,34467,1936
2024-12-18 19:08:48,34467,1934
2024-12-18 19:08:48,34466,1931
2024-12-18 19:08:49,34464,1927
2024-12-18 19:08:49,34463,1924
2024-12-18 19:08:49,34459,1922
2024-12-18 19:08:49,34457,1922
2024-12-18 19:08:50,34459,1919
2024-12-18 19:08:50,34465,1916
2024-12-18 19:08:50,34469,1915
2024-12-18 19:08:50,34471,1913
2024-12-18 19:08:50,34471,1910
2024-12-18 19:08:50,34470,1909
2024-12-18 19:08:50,34468,1907
2024-12-18 19:08:50,34463,1905
2024-12-18 19:08:50,34463,1903
2024-12-18 19:08:50,34466,1902
2024-12-18 19:08:50,34472,1902
2024-12-18 19:08:50,34474,1900
2024-12-18 19:08:50,34474,1898
2024-12-18 19:08:50,34473,1900
2024-12-18 19:08:50,34471,1899
2024-12-18 19:08:50,34467,1898
2024-12-18 19:08:50,34464,1899
2024-12-18 19:08:50,34473,1934
2024-12-18 19:08:50,34470,1897
2024-12-18 19:08:50,34470,1897
2024-12-18 19:08:50,34471,1897
2024-12-18 19:08:50,34480,1908
2024-12-18 19:08:50,34467,1895
2024-12-18 19:08:50,34464,1896
2024-12-18 19:08:50,34460,1894
2024-12-18 19:08:50,34459,1893
2024-12-18 19:08:50,34462,1892
2024-12-18 19:08:50,34468,1891
2024-12-18 19:08:50,34471,1891
2024-12-18 19:08:50,34472,1890
2024-12-18 19:08:50,34471,1888
2024-12-18 19:08:50,34469,1889
2024-12-18 19:08:50,34466,1888
2024-12-18 19:08:50,34463,1886
2024-12-18 19:08:50,34463,1886
2024-12-18 19:08:50,34468,1885
2024-12-18 19:08:50,34473,1885
2024-12-18 19:08:50,34473,1884
2024-12-18 19:08:50,34473,1884
2024-12-18 19:08:50,34471,1882
2024-12-18 19:08:50,34468,1882
2024-12-18 19:08:50,34464,1881
2024-12-18 19:08:50,34463,1881
2024-12-18 19:08:50,34475,1894
2024-12-18 19:08:50,34471,1882
2024-12-18 19:08:50,34472,1881
2024-12-18 19:08:50,34470,1881
2024-12-18 19:08:50,34469,1882
2024-12-18 19:08:50,34466,1879
2024-12-18 19:08:50,34462,1878
2024-12-18 19:08:50,34459,1877
2024-12-18 19:08:50,34460,1876
2024-12-18 19:08:50,34464,1877
2024-12-18 19:08:50,34470,1876
2024-12-18 19:08:50,34472,1877
2024-12-18 19:08:50,34471,1875
2024-12-18 19:08:50,34470,1875
2024-12-18 19:08:50,34468,1875
2024-12-18 19:08:50,34463,1874
2024-12-18 19:08:50,34461,1874
2024-12-18 19:08:50,34464,1874
2024-12-18 19:08:50,34469,1873
2024-12-18 19:08:50,34472,1873
2024-12-18 19:08:50,34472,1873
2024-12-18 19:08:50,34471,1874
2024-12-18 19:08:50,34469,1874
2024-12-18 19:08:50,34466,1877
2024-12-18 19:08:50,34462,1877
2024-12-18 19:08:50,34462,1878
2024-12-18 19:08:50,34475,1893
2024-12-18 19:08:50,34485,1893
2024-12-18 19:08:50,34470,1881
2024-12-18 19:08:50,34468,1883
2024-12-18 19:08:50,34466,1884
2024-12-18 19:08:50,34464,1884
2024-12-18 19:08:50,34459,1883
2024-12-18 19:08:50,34458,1886
2024-12-18 19:08:50,34460,1887
2024-12-18 19:08:50,34466,1886
2024-12-18 19:08:50,34469,1888
2024-12-18 19:08:50,34470,1889
2024-12-18 19:08:50,34469,1889
2024-12-18 19:08:50,34468,1891
2024-12-18 19:08:50,34464,1892
2024-12-18 19:08:50,34461,1893
2024-12-18 19:08:50,34460,1893
2024-12-18 19:08:50,34465,1895
2024-12-18 19:08:50,34469,1896
2024-12-18 19:08:50,34471,1896
2024-12-18 19:08:50,34471,1897
2024-12-18 19:08:50,34469,1897
2024-12-18 19:08:50,34468,1899
2024-12-18 19:08:50,34463,1899
2024-12-18 19:08:50,34462,1901
2024-12-18 19:08:50,34463,1901
2024-12-18 19:08:50,34500,1946
2024-12-18 19:08:50,34471,1918
2024-12-18 19:08:50,34467,1902
2024-12-18 19:08:50,34465,1902
2024-12-18 19:08:50,34463,1900
2024-12-18 19:08:50,34459,1900
2024-12-18 19:08:50,34456,1900
2024-12-18 19:08:50,34456,1899
2024-12-18 19:08:50,34460,1897
2024-12-18 19:08:51,34466,1896
2024-12-18 19:08:51,34468,1894
2024-12-18 19:08:51,34468,1893
2024-12-18 19:08:51,34467,1892
2024-12-18 19:08:51,34465,1890
2024-12-18 19:08:51,34461,1889
2024-12-18 19:08:51,34458,1885
2024-12-18 19:08:51,34460,1883
2024-12-18 19:08:51,34466,1881
2024-12-18 19:08:51,34469,1878
2024-12-18 19:08:51,34470,1878
2024-12-18 19:08:51,34469,1875
2024-12-18 19:08:51,34467,1872
2024-12-18 19:08:51,34464,1871
2024-12-18 19:08:51,34460,1870
2024-12-18 19:08:51,34459,1867
2024-12-18 19:08:51,34462,1866
2024-12-18 19:08:51,34469,1865
2024-12-18 19:08:51,34469,1864
2024-12-18 19:08:51,34469,1863
2024-12-18 19:08:51,34468,1860
2024-12-18 19:08:51,34466,1859
2024-12-18 19:08:51,34461,1859
2024-12-18 19:08:51,34459,1856
2024-12-18 19:08:51,34460,1855
2024-12-18 19:08:51,34465,1855
2024-12-18 19:08:51,34468,1855
2024-12-18 19:08:51,34469,1855
2024-12-18 19:08:51,34468,1854
2024-12-18 19:08:51,34467,1854
2024-12-18 19:08:51,34464,1855
2024-12-18 19:08:51,34460,1854
2024-12-18 19:08:51,34459,1856
2024-12-18 19:08:51,34461,1856
2024-12-18 19:08:51,34467,1856
2024-12-18 19:08:51,34469,1858
2024-12-18 19:08:51,34469,1859
2024-12-18 19:08:51,34468,1861
2024-12-18 19:08:51,34467,1862
2024-12-18 19:08:51,34461,1863
2024-12-18 19:08:51,34458,1865
2024-12-18 19:08:51,34459,1866
2024-12-18 19:08:51,34464,1867
2024-12-18 19:08:51,34477,1880
2024-12-18 19:08:51,34468,1871
2024-12-18 19:08:51,34465,1870
2024-12-18 19:08:51,34466,1873
2024-12-18 19:08:51,34459,1870
2024-12-18 19:08:51,34454,1868
2024-12-18 19:08:51,34453,1868
2024-12-18 19:08:51,34456,1867
2024-12-18 19:08:51,34463,1865
2024-12-18 19:08:51,34465,1865
2024-12-18 19:08:51,34465,1863
2024-12-18 19:08:51,34465,1862
2024-12-18 19:08:51,34463,1861
2024-12-18 19:08:51,34460,1859
2024-12-18 19:08:51,34457,1859
2024-12-18 19:08:51,34457,1857
2024-12-18 19:08:51,34462,1856
2024-12-18 19:08:51,34467,1854
2024-12-18 19:08:51,34467,1853
2024-12-18 19:08:51,34467,1852
2024-12-18 19:08:51,34465,1851
2024-12-18 19:08:51,34463,1849
2024-12-18 19:08:51,34459,1847
2024-12-18 19:08:51,34458,1847
2024-12-18 19:08:51,34460,1846
2024-12-18 19:08:51,34466,1846
2024-12-18 19:08:51,34492,1864
2024-12-18 19:08:51,34488,1870
2024-12-18 19:08:51,34463,1848
2024-12-18 19:08:51,34460,1848
2024-12-18 19:08:51,34456,1848
2024-12-18 19:08:51,34452,1847
2024-12-18 19:08:51,34453,1848
2024-12-18 19:08:51,34458,1848
2024-12-18 19:08:51,34462,1848
2024-12-18 19:08:51,34464,1849
2024-12-18 19:08:51,34464,1849
2024-12-18 19:08:51,34463,1848
2024-12-18 19:08:51,34461,1849
2024-12-18 19:08:51,34457,1849
2024-12-18 19:08:51,34455,1848
2024-12-18 19:08:51,34458,1847
2024-12-18 19:08:51,34464,1846
2024-12-18 19:08:51,34465,1845
2024-12-18 19:08:51,34466,1844
2024-12-18 19:08:51,34465,1842
2024-12-18 19:08:51,34464,1842
2024-12-18 19:08:51,34460,1841
2024-12-18 19:08:51,34457,1840
2024-12-18 19:08:51,34456,1840
2024-12-18 19:08:51,34460,1839
2024-12-18 19:08:51,34466,1840
2024-12-18 19:08:51,34511,1896
2024-12-18 19:08:51,34468,1863
2024-12-18 19:08:51,34456,1839
2024-12-18 19:08:51,34453,1838
2024-12-18 19:08:51,34448,1839
2024-12-18 19:08:51,34446,1838
2024-12-18 19:08:51,34449,1838
2024-12-18 19:08:51,34455,1840
2024-12-18 19:08:51,34458,1840
2024-12-18 19:08:51,34460,1840
2024-12-18 19:08:51,34460,1842
2024-12-18 19:08:51,34459,1844
2024-12-18 19:08:51,34456,1845
2024-12-18 19:08:51,34453,1846
2024-12-18 19:08:51,34454,1849
2024-12-18 19:08:51,34458,1850
2024-12-18 19:08:51,34463,1852
2024-12-18 19:08:51,34465,1850
2024-12-18 19:08:51,34465,1852
2024-12-18 19:08:51,34464,1853
2024-12-18 19:08:51,34462,1853
2024-12-18 19:08:51,34457,1854
2024-12-18 19:08:51,34456,1855
2024-12-18 19:08:51,34457,1854
2024-12-18 19:08:51,34462,1856
2024-12-18 19:08:51,34465,1856
2024-12-18 19:08:51,34475,1879
2024-12-18 19:08:51,34466,1865
2024-12-18 19:08:51,34461,1859
2024-12-18 19:08:51,34457,1860
2024-12-18 19:08:51,34455,1862
2024-12-18 19:08:51,34451,1862
2024-12-18 19:08:51,34454,1863
2024-12-18 19:08:51,34459,1864
2024-12-18 19:08:51,34461,1865
2024-12-18 19:08:51,34462,1866
2024-12-18 19:08:51,34461,1866
2024-12-18 19:08:51,34459,1867
2024-12-18 19:08:51,34456,1866
2024-12-18 19:08:51,34454,1865
2024-12-18 19:08:51,34455,1863
2024-12-18 19:08:51,34460,1861
2024-12-18 19:08:51,34464,1859
2024-12-18 19:08:51,34465,1857
2024-12-18 19:08:51,34465,1857
2024-12-18 19:08:51,34463,1854
2024-12-18 19:08:51,34460,1851
2024-12-18 19:08:51,34456,1849
2024-12-18 19:08:51,34455,1847
2024-12-18 19:08:51,34458,1844
2024-12-18 19:08:51,34463,1842
2024-12-18 19:08:51,34464,1839
2024-12-18 19:08:51,34477,1859
2024-12-18 19:08:51,34473,1837
2024-12-18 19:08:51,34461,1833
2024-12-18 19:08:51,34454,1828
2024-12-18 19:08:51,34451,1825
2024-12-18 19:08:51,34452,1823
2024-12-18 19:08:51,34457,1819
2024-12-18 19:08:51,34460,1818
2024-12-18 19:08:51,34461,1816
2024-12-18 19:08:51,34461,1814
2024-12-18 19:08:51,34460,1814
2024-12-18 19:08:51,34457,1813
2024-12-18 19:08:51,34453,1812
2024-12-18 19:08:51,34453,1813
2024-12-18 19:08:51,34456,1813
2024-12-18 19:08:51,34462,1815
2024-12-18 19:08:51,34463,1816
2024-12-18 19:08:51,34463,1819
2024-12-18 19:08:51,34463,1820
2024-12-18 19:08:51,34461,1821
2024-12-18 19:08:51,34456,1825
2024-12-18 19:08:51,34455,1830
2024-12-18 19:08:51,34454,1833
2024-12-18 19:08:51,34459,1837
2024-12-18 19:08:51,34463,1841
2024-12-18 19:08:51,34464,1845
2024-12-18 19:08:51,34468,1876
2024-12-18 19:08:51,34473,1866
2024-12-18 19:08:51,34456,1858
2024-12-18 19:08:51,34452,1862
2024-12-18 19:08:51,34450,1866
2024-12-18 19:08:51,34452,1868
2024-12-18 19:08:51,34458,1871
2024-12-18 19:08:51,34460,1875
2024-12-18 19:08:51,34462,1879
2024-12-18 19:08:51,34462,1882
2024-12-18 19:08:51,34459,1886
2024-12-18 19:08:51,34455,1888
2024-12-18 19:08:51,34452,1892
2024-12-18 19:08:51,34453,1896
2024-12-18 19:08:51,34458,1899
2024-12-18 19:08:51,34462,1902
2024-12-18 19:08:51,34463,1907
2024-12-18 19:08:51,34463,1912
2024-12-18 19:08:51,34461,1915
2024-12-18 19:08:51,34459,1919
2024-12-18 19:08:51,34454,1923
2024-12-18 19:08:51,34453,1927
2024-12-18 19:08:51,34456,1932
2024-12-18 19:08:51,34461,1934
2024-12-18 19:08:51,34463,1938
2024-12-18 19:08:51,34464,1941
2024-12-18 19:08:51,34476,1997
2024-12-18 19:08:51,34459,1953
2024-12-18 19:08:51,34452,1950
2024-12-18 19:08:51,34449,1953
2024-12-18 19:08:51,34449,1955
2024-12-18 19:08:51,34453,1955
2024-12-18 19:08:51,34457,1956
2024-12-18 19:08:51,34459,1957
2024-12-18 19:08:51,34459,1959
2024-12-18 19:08:51,34458,1960
2024-12-18 19:08:51,34456,1961
2024-12-18 19:08:51,34452,1963
2024-12-18 19:08:51,34450,1964
2024-12-18 19:08:51,34453,1964
2024-12-18 19:08:51,34460,1966
2024-12-18 19:08:51,34461,1966
2024-12-18 19:08:51,34462,1967
2024-12-18 19:08:51,34461,1969
2024-12-18 19:08:51,34459,1969
2024-12-18 19:08:51,34456,1969
2024-12-18 19:08:51,34452,1970
2024-12-18 19:08:51,34452,1970
2024-12-18 19:08:51,34457,1968
2024-12-18 19:08:51,34461,1968
2024-12-18 19:08:51,34462,1966
2024-12-18 19:08:51,34462,1965
2024-12-18 19:08:51,34466,1989
2024-12-18 19:08:51,34491,2001
2024-12-18 19:08:51,34448,1959
2024-12-18 19:08:51,34444,1956
2024-12-18 19:08:51,34448,1954
2024-12-18 19:08:51,34451,1949
2024-12-18 19:08:51,34454,1946
2024-12-18 19:08:51,34455,1943
2024-12-18 19:08:51,34455,1939
2024-12-18 19:08:51,34454,1936
2024-12-18 19:08:51,34450,1933
2024-12-18 19:08:51,34448,1929
2024-12-18 19:08:51,34448,1927
2024-12-18 19:08:51,34453,1925
2024-12-18 19:08:51,34458,1922
2024-12-18 19:08:51,34459,1920
2024-12-18 19:08:51,34460,1919
2024-12-18 19:08:51,34460,1916
2024-12-18 19:08:51,34457,1914
2024-12-18 19:08:51,34452,1911
2024-12-18 19:08:51,34450,1909
2024-12-18 19:08:51,34452,1907
2024-12-18 19:08:51,34458,1905
2024-12-18 19:08:51,34460,1905
2024-12-18 19:08:51,34461,1903
2024-12-18 19:08:51,34460,1901
2024-12-18 19:08:51,34467,1931
2024-12-18 19:08:51,34462,1910
2024-12-18 19:08:51,34448,1904
2024-12-18 19:08:51,34447,1908
2024-12-18 19:08:51,34451,1905
2024-12-18 19:08:51,34456,1905
2024-12-18 19:08:51,34457,1905
2024-12-18 19:08:51,34457,1907
2024-12-18 19:08:51,34456,1907
2024-12-18 19:08:51,34455,1906
2024-12-18 19:08:51,34451,1908
2024-12-18 19:08:51,34448,1907
2024-12-18 19:08:51,34450,1906
2024-12-18 19:08:51,34456,1907
2024-12-18 19:08:51,34459,1906
2024-12-18 19:08:51,34459,1906
2024-12-18 19:08:51,34459,1905
2024-12-18 19:08:51,34458,1905
2024-12-18 19:08:51,34454,1904
2024-12-18 19:08:51,34451,1904
2024-12-18 19:08:51,34449,1903
2024-12-18 19:08:51,34453,1901
2024-12-18 19:08:51,34459,1899
2024-12-18 19:08:51,34460,1897
2024-12-18 19:08:51,34460,1895
2024-12-18 19:08:51,34459,1894
2024-12-18 19:08:51,34487,1931
2024-12-18 19:08:51,34456,1895
2024-12-18 19:08:51,34447,1888
2024-12-18 19:08:51,34447,1889
2024-12-18 19:08:51,34453,1886
2024-12-18 19:08:51,34455,1885
2024-12-18 19:08:51,34456,1883
2024-12-18 19:08:51,34456,1880
2024-12-18 19:08:51,34454,1879
2024-12-18 19:08:51,34451,1877
2024-12-18 19:08:51,34448,1875
2024-12-18 19:08:51,34447,1873
2024-12-18 19:08:51,34451,1871
2024-12-18 19:08:51,34456,1870
2024-12-18 19:08:51,34458,1868
2024-12-18 19:08:51,34458,1867
2024-12-18 19:08:51,34458,1865
2024-12-18 19:08:51,34455,1863
2024-12-18 19:08:51,34451,1862
2024-12-18 19:08:51,34448,1863
2024-12-18 19:08:51,34450,1862
2024-12-18 19:08:51,34455,1860
2024-12-18 19:08:51,34459,1860
2024-12-18 19:08:51,34459,1860
2024-12-18 19:08:51,34459,1859
2024-12-18 19:08:51,34457,1861
2024-12-18 19:08:51,34464,1880
2024-12-18 19:08:51,34459,1863
2024-12-18 19:08:51,34446,1862
2024-12-18 19:08:51,34448,1862
2024-12-18 19:08:51,34453,1864
2024-12-18 19:08:51,34455,1866
2024-12-18 19:08:51,34455,1867
2024-12-18 19:08:51,34454,1867
2024-12-18 19:08:51,34453,1870
2024-12-18 19:08:51,34449,1871
2024-12-18 19:08:51,34446,1874
2024-12-18 19:08:51,34447,1875
2024-12-18 19:08:51,34452,1877
2024-12-18 19:08:51,34457,1880
2024-12-18 19:08:51,34458,1881
2024-12-18 19:08:51,34457,1883
2024-12-18 19:08:51,34456,1885
2024-12-18 19:08:51,34454,1887
2024-12-18 19:08:51,34449,1888
2024-12-18 19:08:51,34448,1891
2024-12-18 19:08:51,34451,1893
2024-12-18 19:08:51,34457,1894
2024-12-18 19:08:51,34458,1898
2024-12-18 19:08:51,34459,1901
2024-12-18 19:08:51,34458,1902
2024-12-18 19:08:52,34456,1904
2024-12-18 19:08:52,34467,1931
2024-12-18 19:08:52,34456,1909
2024-12-18 19:08:52,34446,1908
2024-12-18 19:08:52,34451,1907
2024-12-18 19:08:52,34455,1905
2024-12-18 19:08:52,34455,1905
2024-12-18 19:08:52,34454,1904
2024-12-18 19:08:52,34453,1903
2024-12-18 19:08:52,34452,1903
2024-12-18 19:08:52,34448,1904
2024-12-18 19:08:52,34446,1903
2024-12-18 19:08:52,34450,1903
2024-12-18 19:08:52,34455,1901
2024-12-18 19:08:52,34458,1902
2024-12-18 19:08:52,34457,1901
2024-12-18 19:08:52,34456,1899
2024-12-18 19:08:52,34455,1899
2024-12-18 19:08:52,34451,1899
2024-12-18 19:08:52,34448,1897
2024-12-18 19:08:52,34448,1898
2024-12-18 19:08:52,34452,1896
2024-12-18 19:08:52,34457,1895
2024-12-18 19:08:52,34458,1895
2024-12-18 19:08:52,34458,1894
2024-12-18 19:08:52,34456,1894
2024-12-18 19:08:52,34454,1893
2024-12-18 19:08:53,34470,1902
2024-12-18 19:08:53,34451,1893
2024-12-18 19:08:53,34450,1893
2024-12-18 19:08:54,34459,1896
2024-12-18 19:08:54,34455,1889
2024-12-18 19:08:54,34455,1888
2024-12-18 19:08:54,34454,1889
2024-12-18 19:08:54,34452,1887
2024-12-18 19:08:55,34449,1886
2024-12-18 19:08:55,34446,1885
2024-12-18 19:08:55,34446,1884
2024-12-18 19:08:56,34451,1884
2024-12-18 19:08:56,34456,1882
2024-12-18 19:08:56,34456,1882
2024-12-18 19:08:57,34457,1881
2024-12-18 19:08:57,34456,1878
2024-12-18 19:08:57,34454,1879
2024-12-18 19:08:57,34449,1877
2024-12-18 19:08:58,34447,1876
2024-12-18 19:08:58,34449,1876
2024-12-18 19:08:58,34455,1875
2024-12-18 19:08:59,34457,1875
2024-12-18 19:08:59,34458,1877
2024-12-18 19:08:59,34457,1876
2024-12-18 19:08:59,34456,1875
2024-12-18 19:09:00,34452,1875
2024-12-18 19:09:00,34470,1892
2024-12-18 19:09:00,34460,1888
2024-12-18 19:09:01,34457,1885
2024-12-18 19:09:01,34453,1875
2024-12-18 19:09:01,34454,1873
2024-12-18 19:09:01,34452,1871
2024-12-18 19:09:02,34451,1870
2024-12-18 19:09:02,34450,1867
2024-12-18 19:09:02,34446,1867
2024-12-18 19:09:03,34444,1865
2024-12-18 19:09:03,34446,1863
2024-12-18 19:09:03,34452,1861
2024-12-18 19:09:04,34455,1860
2024-12-18 19:09:04,34456,1859
2024-12-18 19:09:04,34456,1857
2024-12-18 19:09:04,34454,1854
2024-12-18 19:09:05,34452,1854
2024-12-18 19:09:05,34448,1852
2024-12-18 19:09:05,34447,1849
2024-12-18 19:09:06,34451,1846
2024-12-18 19:09:06,34455,1845
2024-12-18 19:09:06,34457,1842
2024-12-18 19:09:07,34457,1840
2024-12-18 19:09:07,34455,1839
2024-12-18 19:09:07,34454,1837
2024-12-18 19:09:07,34449,1835
2024-12-18 19:09:08,34480,1864
2024-12-18 19:09:08,34450,1833
2024-12-18 19:09:08,34451,1831
2024-12-18 19:09:09,34453,1830
2024-12-18 19:09:09,34454,1827
2024-12-18 19:09:09,34452,1826
2024-12-18 19:09:10,34451,1825
2024-12-18 19:09:10,34449,1825
2024-12-18 19:09:10,34444,1825
2024-12-18 19:09:10,34444,1825
2024-12-18 19:09:11,34448,1825
2024-12-18 19:09:11,34454,1825
2024-12-18 19:09:11,34455,1826
2024-12-18 19:09:12,34455,1828
2024-12-18 19:09:12,34455,1829
2024-12-18 19:09:12,34453,1830
2024-12-18 19:09:13,34448,1831
2024-12-18 19:09:13,34446,1833
2024-12-18 19:09:13,34447,1834
2024-12-18 19:09:14,34453,1836
2024-12-18 19:09:14,34456,1836
2024-12-18 19:09:14,34457,1837
2024-12-18 19:09:14,34456,1838
2024-12-18 19:09:14,34455,1840
2024-12-18 19:09:15,34451,1840
2024-12-18 19:09:15,34447,1841
2024-12-18 19:09:15,34470,1851
2024-12-18 19:09:16,34455,1843
2024-12-18 19:09:16,34453,1841
2024-12-18 19:09:16,34453,1841
2024-12-18 19:09:17,34456,1842
2024-12-18 19:09:17,34451,1844
2024-12-18 19:09:17,34450,1838
2024-12-18 19:09:18,34446,1839
2024-12-18 19:09:18,34445,1839
2024-12-18 19:09:18,34445,1837
2024-12-18 19:09:19,34450,1837
2024-12-18 19:09:19,34454,1836
2024-12-18 19:09:19,34455,1835
2024-12-18 19:09:20,34454,1835
2024-12-18 19:09:20,34452,1833
2024-12-18 19:09:20,34450,1832
2024-12-18 19:09:21,34446,1831
2024-12-18 19:09:21,34446,1831
2024-12-18 19:09:21,34448,1829
2024-12-18 19:09:22,34453,1829
2024-12-18 19:09:22,34455,1830
2024-12-18 19:09:22,34455,1828
2024-12-18 19:09:23,34454,1829
2024-12-18 19:09:23,34453,1829
2024-12-18 19:09:23,34449,1829
2024-12-18 19:09:24,34446,1830
2024-12-18 19:09:24,34470,1841
2024-12-18 19:09:24,34462,1835
2024-12-18 19:09:25,34452,1836
2024-12-18 19:09:25,34450,1840
2024-12-18 19:09:25,34451,1838
2024-12-18 19:09:26,34449,1840
2024-12-18 19:09:26,34447,1842
2024-12-18 19:09:26,34445,1843
2024-12-18 19:09:26,34444,1845
2024-12-18 19:09:26,34446,1847
2024-12-18 19:09:27,34452,1849
2024-12-18 19:09:27,34453,1853
2024-12-18 19:09:27,34453,1853
2024-12-18 19:09:28,34453,1855
2024-12-18 19:09:28,34451,1856
2024-12-18 19:09:28,34449,1856
2024-12-18 19:09:28,34447,1857
2024-12-18 19:09:29,34448,1858
2024-12-18 19:09:29,34451,1858
2024-12-18 19:09:29,34454,1860
2024-12-18 19:09:30,34454,1860
2024-12-18 19:09:30,34454,1860
2024-12-18 19:09:30,34452,1860
2024-12-18 19:09:31,34451,1862
2024-12-18 19:09:31,34450,1862
2024-12-18 19:09:31,34448,1864
2024-12-18 19:09:31,34497,1892
2024-12-18 19:09:32,34455,1867
2024-12-18 19:09:32,34451,1868
2024-12-18 19:09:32,34450,1869
2024-12-18 19:09:33,34450,1868
2024-12-18 19:09:33,34448,1868
2024-12-18 19:09:33,34446,1870
2024-12-18 19:09:33,34445,1870
2024-12-18 19:09:34,34446,1870
2024-12-18 19:09:34,34448,1871
2024-12-18 19:09:34,34450,1870
2024-12-18 19:09:34,34451,1873
2024-12-18 19:09:35,34452,1874
2024-12-18 19:09:35,34452,1875
2024-12-18 19:09:35,34451,1876
2024-12-18 19:09:36,34449,1875
2024-12-18 19:09:36,34449,1877
2024-12-18 19:09:36,34450,1878
2024-12-18 19:09:37,34451,1878
2024-12-18 19:09:37,34451,1880
2024-12-18 19:09:37,34452,1882
2024-12-18 19:09:37,34452,1883
2024-12-18 19:09:38,34451,1884
2024-12-18 19:09:38,34450,1885
2024-12-18 19:09:38,34450,1888
2024-12-18 19:09:38,34449,1889
2024-12-18 19:09:39,34470,1897
2024-12-18 19:09:39,34455,1892
2024-12-18 19:09:39,34449,1892
2024-12-18 19:09:39,34449,1892
2024-12-18 19:09:40,34448,1893
2024-12-18 19:09:40,34446,1893
2024-12-18 19:09:40,34446,1894
2024-12-18 19:09:40,34446,1895
2024-12-18 19:09:41,34447,1896
2024-12-18 19:09:41,34448,1897
2024-12-18 19:09:41,34449,1900
2024-12-18 19:09:42,34449,1902
2024-12-18 19:09:42,34449,1903
2024-12-18 19:09:42,34449,1905
2024-12-18 19:09:43,34449,1907
2024-12-18 19:09:43,34450,1910
2024-12-18 19:09:43,34449,1913
2024-12-18 19:09:44,34450,1916
2024-12-18 19:09:44,34450,1918
2024-12-18 19:09:44,34450,1921
2024-12-18 19:09:44,34450,1924
2024-12-18 19:09:45,34450,1927
2024-12-18 19:09:45,34450,1929
2024-12-18 19:09:45,34449,1932
2024-12-18 19:09:46,34449,1935
2024-12-18 19:09:46,34449,1937
2024-12-18 19:09:46,34472,1949
2024-12-18 19:09:47,34450,1944
2024-12-18 19:09:47,34447,1945
2024-12-18 19:09:47,34447,1946
2024-12-18 19:09:48,34445,1946
2024-12-18 19:09:48,34444,1947
2024-12-18 19:09:48,34444,1948
2024-12-18 19:09:49,34445,1949
2024-12-18 19:09:49,34446,1949
2024-12-18 19:09:49,34446,1950
2024-12-18 19:09:50,34447,1951
2024-12-18 19:09:50,34447,1951
2024-12-18 19:09:50,34448,1952
2024-12-18 19:09:51,34447,1953
2024-12-18 19:09:51,34447,1954
2024-12-18 19:09:51,34448,1953
2024-12-18 19:09:51,34449,1957
2024-12-18 19:09:52,34448,1956
2024-12-18 19:09:52,34448,1957
2024-12-18 19:09:52,34449,1958
2024-12-18 19:09:52,34449,1958
2024-12-18 19:09:53,34448,1957
2024-12-18 19:09:53,34448,1957
2024-12-18 19:09:53,34448,1956
2024-12-18 19:09:54,34448,1956
2024-12-18 19:09:54,34449,1954
2024-12-18 19:09:54,34459,1969
2024-12-18 19:09:55,34450,1952
2024-12-18 19:09:55,34451,1952
2024-12-18 19:09:55,34446,1948
2024-12-18 19:09:56,34446,1945
2024-12-18 19:09:56,34445,1942
2024-12-18 19:09:56,34446,1941
2024-12-18 19:09:57,34446,1938
2024-12-18 19:09:57,34446,1936
2024-12-18 19:09:57,34446,1936
2024-12-18 19:09:58,34447,1933
2024-12-18 19:09:58,34447,1931
2024-12-18 19:09:58,34447,1930
2024-12-18 19:09:58,34447,1928
2024-12-18 19:09:59,34447,1926
2024-12-18 19:09:59,34448,1923
2024-12-18 19:09:59,34448,1922
2024-12-18 19:10:00,34448,1920
2024-12-18 19:10:00,34448,1917
2024-12-18 19:10:00,34450,1917
2024-12-18 19:10:00,34449,1915
2024-12-18 19:10:01,34448,1912
2024-12-18 19:10:01,34448,1910
2024-12-18 19:10:01,34449,1909
2024-12-18 19:10:02,34449,1906
2024-12-18 19:10:02,34449,1903
2024-12-18 19:10:02,34464,1907
2024-12-18 19:10:03,34449,1916
2024-12-18 19:10:03,34446,1897
2024-12-18 19:10:03,34445,1895
2024-12-18 19:10:03,34445,1891
2024-12-18 19:10:04,34444,1888
2024-12-18 19:10:04,34445,1887
2024-12-18 19:10:04,34445,1885
2024-12-18 19:10:04,34446,1883
2024-12-18 19:10:04,34446,1882
2024-12-18 19:10:05,34446,1881
2024-12-18 19:10:05,34447,1880
2024-12-18 19:10:05,34446,1878
2024-12-18 19:10:05,34447,1879
2024-12-18 19:10:06,34447,1877
2024-12-18 19:10:06,34448,1876
2024-12-18 19:10:06,34448,1875
2024-12-18 19:10:07,34447,1874
2024-12-18 19:10:07,34447,1872
2024-12-18 19:10:07,34447,1870
2024-12-18 19:10:08,34446,1869
2024-12-18 19:10:08,34446,1868
2024-12-18 19:10:08,34447,1867
2024-12-18 19:10:08,34446,1865
2024-12-18 19:10:09,34447,1866
2024-12-18 19:10:09,34446,1864
2024-12-18 19:10:09,34467,1882
2024-12-18 19:10:10,34447,1867
2024-12-18 19:10:10,34444,1866
2024-12-18 19:10:10,34442,1867
2024-12-18 19:10:11,34442,1868
2024-12-18 19:10:11,34442,1867
2024-12-18 19:10:11,34442,1868
2024-12-18 19:10:11,34442,1868
2024-12-18 19:10:11,34442,1870
2024-12-18 19:10:12,34443,1871
2024-12-18 19:10:12,34444,1873
2024-12-18 19:10:12,34444,1874
2024-12-18 19:10:13,34443,1874
2024-12-18 19:10:13,34444,1877
2024-12-18 19:10:13,34444,1879
2024-12-18 19:10:13,34444,1878
2024-12-18 19:10:14,34446,1881
2024-12-18 19:10:14,34444,1882
2024-12-18 19:10:14,34445,1884
2024-12-18 19:10:14,34445,1885
2024-12-18 19:10:15,34444,1887
2024-12-18 19:10:15,34444,1887
2024-12-18 19:10:15,34444,1889
2024-12-18 19:10:16,34445,1891
2024-12-18 19:10:16,34444,1892
2024-12-18 19:10:16,34444,1894
2024-12-18 19:10:17,34455,1902
2024-12-18 19:10:17,34445,1897
2024-12-18 19:10:17,34442,1898
2024-12-18 19:10:18,34441,1898
2024-12-18 19:10:18,34443,1900
2024-12-18 19:10:18,34440,1900
2024-12-18 19:10:18,34441,1900
2024-12-18 19:10:19,34441,1900
2024-12-18 19:10:19,34441,1902
2024-12-18 19:10:19,34442,1902
2024-12-18 19:10:19,34442,1902
2024-12-18 19:10:20,34442,1902
2024-12-18 19:10:20,34442,1902
2024-12-18 19:10:20,34443,1901
2024-12-18 19:10:20,34442,1902
2024-12-18 19:10:21,34443,1902
2024-12-18 19:10:21,34443,1901
2024-12-18 19:10:21,34444,1901
2024-12-18 19:10:22,34443,1900
2024-12-18 19:10:22,34443,1899
2024-12-18 19:10:22,34442,1900
2024-12-18 19:10:23,34442,1899
2024-12-18 19:10:23,34442,1896
2024-12-18 19:10:23,34442,1895
2024-12-18 19:10:23,34442,1894
2024-12-18 19:10:24,34442,1893
2024-12-18 19:10:24,34451,1904
2024-12-18 19:10:24,34449,1894
2024-12-18 19:10:24,34439,1890
2024-12-18 19:10:25,34439,1890
2024-12-18 19:10:25,34439,1888
2024-12-18 19:10:25,34438,1885
2024-12-18 19:10:26,34438,1883
2024-12-18 19:10:26,34438,1881
2024-12-18 19:10:26,34439,1877
2024-12-18 19:10:27,34439,1875
2024-12-18 19:10:27,34440,1872
2024-12-18 19:10:27,34440,1869
2024-12-18 19:10:28,34440,1867
2024-12-18 19:10:28,34440,1864
2024-12-18 19:10:28,34440,1861
2024-12-18 19:10:29,34440,1859
2024-12-18 19:10:29,34440,1857
2024-12-18 19:10:29,34440,1856
2024-12-18 19:10:30,34440,1854
2024-12-18 19:10:30,34440,1853
2024-12-18 19:10:30,34440,1853
2024-12-18 19:10:31,34441,1854
2024-12-18 19:10:31,34440,1853
2024-12-18 19:10:31,34440,1853
2024-12-18 19:10:32,34440,1852
2024-12-18 19:10:32,34439,1852
2024-12-18 19:10:32,34471,1884
2024-12-18 19:10:33,34440,1856
2024-12-18 19:10:33,34437,1854
2024-12-18 19:10:33,34436,1853
2024-12-18 19:10:33,34436,1854
2024-12-18 19:10:34,34435,1855
2024-12-18 19:10:34,34436,1854
2024-12-18 19:10:34,34436,1854
2024-12-18 19:10:35,34437,1855
2024-12-18 19:10:35,34437,1856
2024-12-18 19:10:35,34438,1857
2024-12-18 19:10:35,34437,1856
2024-12-18 19:10:36,34438,1857
2024-12-18 19:10:36,34438,1857
2024-12-18 19:10:36,34438,1856
2024-12-18 19:10:37,34438,1856
2024-12-18 19:10:37,34439,1857
2024-12-18 19:10:37,34439,1856
2024-12-18 19:10:38,34439,1856
2024-12-18 19:10:38,34439,1855
2024-12-18 19:10:38,34440,1855
2024-12-18 19:10:39,34440,1856
2024-12-18 19:10:39,34440,1857
2024-12-18 19:10:39,34440,1855
2024-12-18 19:10:39,34440,1858
2024-12-18 19:10:40,34440,1859
2024-12-18 19:10:40,34447,1873
2024-12-18 19:10:40,34440,1861
2024-12-18 19:10:41,34437,1863
2024-12-18 19:10:41,34436,1865
2024-12-18 19:10:41,34436,1866
2024-12-18 19:10:42,34436,1866
2024-12-18 19:10:42,34436,1868
2024-12-18 19:10:42,34436,1868
2024-12-18 19:10:42,34437,1869
2024-12-18 19:10:43,34437,1870
2024-12-18 19:10:43,34437,1871
2024-12-18 19:10:43,34438,1872
2024-12-18 19:10:43,34438,1874
2024-12-18 19:10:44,34440,1876
2024-12-18 19:10:44,34439,1875
2024-12-18 19:10:44,34439,1877
2024-12-18 19:10:45,34440,1877
2024-12-18 19:10:45,34440,1877
2024-12-18 19:10:45,34439,1878
2024-12-18 19:10:45,34440,1879
2024-12-18 19:10:46,34440,1879
2024-12-18 19:10:46,34440,1880
2024-12-18 19:10:46,34440,1882
2024-12-18 19:10:47,34440,1883
2024-12-18 19:10:47,34440,1884
2024-12-18 19:10:47,34440,1885
2024-12-18 19:10:48,34440,1885
2024-12-18 19:10:48,34440,1884
2024-12-18 19:10:48,34440,1884
2024-12-18 19:10:49,34441,1884
2024-12-18 19:10:49,34441,1883
2024-12-18 19:10:49,34442,1883
2024-12-18 19:10:49,34441,1883
2024-12-18 19:10:50,34441,1881
2024-12-18 19:10:50,34442,1880
2024-12-18 19:10:50,34441,1879
2024-12-18 19:10:50,34441,1877
2024-12-18 19:10:51,34441,1874
2024-12-18 19:10:51,34441,1872
2024-12-18 19:10:52,34441,1869
2024-12-18 19:10:52,34441,1866
2024-12-18 19:10:52,34441,1862
2024-12-18 19:10:52,34442,1860
2024-12-18 19:10:53,34442,1857
2024-12-18 19:10:53,34441,1854
2024-12-18 19:10:53,34441,1852
2024-12-18 19:10:54,34441,1850
2024-12-18 19:10:54,34442,1848
2024-12-18 19:10:54,34442,1846
2024-12-18 19:10:54,34441,1844
2024-12-18 19:10:55,34441,1843
2024-12-18 19:10:55,34441,1842
2024-12-18 19:10:55,34458,1847
2024-12-18 19:10:56,34439,1847
2024-12-18 19:10:56,34441,1844
2024-12-18 19:10:56,34439,1841
2024-12-18 19:10:57,34439,1840
2024-12-18 19:10:57,34438,1841
2024-12-18 19:10:57,34438,1842
2024-12-18 19:10:58,34439,1842
2024-12-18 19:10:58,34440,1843
2024-12-18 19:10:58,34440,1844
2024-12-18 19:10:58,34440,1845
2024-12-18 19:10:59,34440,1846
2024-12-18 19:10:59,34441,1847
2024-12-18 19:10:59,34441,1848
2024-12-18 19:11:00,34441,1848
2024-12-18 19:11:00,34441,1848
2024-12-18 19:11:00,34441,1851
2024-12-18 19:11:01,34441,1851
2024-12-18 19:11:01,34441,1852
2024-12-18 19:11:01,34442,1855
2024-12-18 19:11:01,34440,1856
2024-12-18 19:11:01,34440,1857
2024-12-18 19:11:02,34440,1858
2024-12-18 19:11:02,34439,1860
2024-12-18 19:11:02,34439,1862
2024-12-18 19:11:03,34439,1864
2024-12-18 19:11:03,34442,1894
2024-12-18 19:11:03,34449,1885
2024-12-18 19:11:04,34435,1871
2024-12-18 19:11:04,34435,1872
2024-12-18 19:11:04,34434,1873
2024-12-18 19:11:05,34433,1874
2024-12-18 19:11:05,34433,1875
2024-12-18 19:11:05,34434,1875
2024-12-18 19:11:05,34435,1876
2024-12-18 19:11:06,34435,1875
2024-12-18 19:11:06,34435,1876
2024-12-18 19:11:06,34435,1876
2024-12-18 19:11:07,34436,1876
2024-12-18 19:11:07,34436,1876
2024-12-18 19:11:07,34436,1877
2024-12-18 19:11:07,34436,1878
2024-12-18 19:11:08,34437,1879
2024-12-18 19:11:08,34436,1879
2024-12-18 19:11:08,34437,1880
2024-12-18 19:11:09,34437,1882
2024-12-18 19:11:09,34437,1884
2024-12-18 19:11:09,34437,1886
2024-12-18 19:11:10,34437,1890
2024-12-18 19:11:10,34436,1894
2024-12-18 19:11:10,34437,1895
2024-12-18 19:11:10,34436,1899
2024-12-18 19:11:11,34448,1922
2024-12-18 19:11:11,34437,1905
2024-12-18 19:11:11,34434,1907
