Timestamp,ECG_CH1,ECG_CH2
2024-12-19 08:55:50,208484,15928
2024-12-19 08:55:50,209578,15956
2024-12-19 08:55:50,210063,15971
2024-12-19 08:55:50,209789,15988
2024-12-19 08:55:50,208691,15881
2024-12-19 08:55:50,207567,15899
2024-12-19 08:55:50,206687,15872
2024-12-19 08:55:50,207053,15927
2024-12-19 08:55:50,207952,15922
2024-12-19 08:55:50,208986,15906
2024-12-19 08:55:50,209723,15822
2024-12-19 08:55:50,209462,15845
2024-12-19 08:55:50,208766,15762
2024-12-19 08:55:50,207622,15774
2024-12-19 08:55:50,206825,15784
2024-12-19 08:55:50,206709,15822
2024-12-19 08:55:50,206994,15806
2024-12-19 08:55:50,208084,15781
2024-12-19 08:55:50,209258,15743
2024-12-19 08:55:50,209879,15765
2024-12-19 08:55:50,209685,15779
2024-12-19 08:55:50,208908,15784
2024-12-19 08:55:50,207926,15813
2024-12-19 08:55:50,206821,15799
2024-12-19 08:55:50,206801,15791
2024-12-19 08:55:50,207751,15793
2024-12-19 08:55:50,208908,15735
2024-12-19 08:55:50,209618,15673
2024-12-19 08:55:50,209503,15624
2024-12-19 08:55:50,209024,15658
2024-12-19 08:55:50,207982,15681
2024-12-19 08:55:50,207038,15726
2024-12-19 08:55:50,206803,15734
2024-12-19 08:55:50,207098,15703
2024-12-19 08:55:50,208333,15709
2024-12-19 08:55:50,208756,15725
2024-12-19 08:55:50,209553,15655
2024-12-19 08:55:50,209506,15661
2024-12-19 08:55:50,208934,15699
2024-12-19 08:55:50,207821,15623
2024-12-19 08:55:50,206870,15690
2024-12-19 08:55:50,206673,15747
2024-12-19 08:55:50,207476,15788
2024-12-19 08:55:50,209000,15859
2024-12-19 08:55:50,210538,15968
2024-12-19 08:55:50,211421,16238
2024-12-19 08:55:50,211529,16421
2024-12-19 08:55:50,211031,16759
2024-12-19 08:55:50,211289,17326
2024-12-19 08:55:50,212587,17956
2024-12-19 08:55:50,213199,18281
2024-12-19 08:55:50,214048,18497
2024-12-19 08:55:50,215033,18866
2024-12-19 08:55:50,214440,18793
2024-12-19 08:55:50,210249,17311
2024-12-19 08:55:50,208156,16410
2024-12-19 08:55:50,202349,14289
2024-12-19 08:55:50,198761,12944
2024-12-19 08:55:50,197518,11726
2024-12-19 08:55:50,195470,10373
2024-12-19 08:55:50,192665,9440
2024-12-19 08:55:50,191654,8591
2024-12-19 08:55:50,193623,8325
2024-12-19 08:55:50,193931,8084
2024-12-19 08:55:50,193573,7981
2024-12-19 08:55:50,194662,8175
2024-12-19 08:55:50,197173,8773
2024-12-19 08:55:50,200402,9204
2024-12-19 08:55:50,203494,9641
2024-12-19 08:55:50,205979,10431
2024-12-19 08:55:50,207684,11258
2024-12-19 08:55:50,208220,12142
2024-12-19 08:55:50,207638,12844
2024-12-19 08:55:50,207241,13507
2024-12-19 08:55:50,206938,14212
2024-12-19 08:55:50,207079,14468
2024-12-19 08:55:50,207348,14802
2024-12-19 08:55:50,208199,15021
2024-12-19 08:55:50,208976,15131
2024-12-19 08:55:50,209255,15353
2024-12-19 08:55:50,209126,15543
2024-12-19 08:55:50,208515,15644
2024-12-19 08:55:50,207489,15743
2024-12-19 08:55:50,206738,15731
2024-12-19 08:55:50,207176,15904
2024-12-19 08:55:50,208218,15879
2024-12-19 08:55:50,209580,15889
2024-12-19 08:55:50,210341,15942
2024-12-19 08:55:50,210196,15969
2024-12-19 08:55:50,209488,16023
2024-12-19 08:55:50,208763,16069
2024-12-19 08:55:50,207738,16133
2024-12-19 08:55:50,207605,16173
2024-12-19 08:55:50,208325,16178
2024-12-19 08:55:50,209409,16150
2024-12-19 08:55:50,209740,16121
2024-12-19 08:55:50,210131,16094
2024-12-19 08:55:50,209955,16063
2024-12-19 08:55:50,209336,16141
2024-12-19 08:55:50,208283,16209
2024-12-19 08:55:50,207499,16239
2024-12-19 08:55:50,207683,16239
2024-12-19 08:55:50,208563,16251
2024-12-19 08:55:50,209948,16303
2024-12-19 08:55:50,210578,16205
2024-12-19 08:55:50,210518,16206
2024-12-19 08:55:50,209798,16205
2024-12-19 08:55:50,208884,16224
2024-12-19 08:55:50,208084,16299
2024-12-19 08:55:50,207893,16323
2024-12-19 08:55:50,208642,16383
2024-12-19 08:55:50,209983,16409
2024-12-19 08:55:50,210771,16314
2024-12-19 08:55:50,210691,16338
2024-12-19 08:55:50,210433,16369
2024-12-19 08:55:50,210060,16390
2024-12-19 08:55:50,209121,16419
2024-12-19 08:55:50,208365,16529
2024-12-19 08:55:50,208335,16531
2024-12-19 08:55:50,209149,16481
2024-12-19 08:55:50,210371,16441
2024-12-19 08:55:50,211266,16461
2024-12-19 08:55:50,211207,16526
2024-12-19 08:55:50,210753,16554
2024-12-19 08:55:50,209925,16620
2024-12-19 08:55:50,208911,16631
2024-12-19 08:55:50,208746,16745
2024-12-19 08:55:50,209296,16799
2024-12-19 08:55:50,210493,16756
2024-12-19 08:55:50,211388,16710
2024-12-19 08:55:50,211594,16694
2024-12-19 08:55:50,211309,16738
2024-12-19 08:55:50,210489,16786
2024-12-19 08:55:50,209718,16853
2024-12-19 08:55:50,209100,16924
2024-12-19 08:55:50,209116,16934
2024-12-19 08:55:50,209836,16926
2024-12-19 08:55:50,211311,16891
2024-12-19 08:55:50,212498,16913
2024-12-19 08:55:50,212729,16903
2024-12-19 08:55:50,212216,16958
2024-12-19 08:55:50,211337,17004
2024-12-19 08:55:50,210474,17103
2024-12-19 08:55:50,210156,17068
2024-12-19 08:55:50,210669,17126
2024-12-19 08:55:50,212099,17111
2024-12-19 08:55:50,213248,17098
2024-12-19 08:55:50,213789,17163
2024-12-19 08:55:50,213440,17168
2024-12-19 08:55:50,212730,17193
2024-12-19 08:55:50,211824,17251
2024-12-19 08:55:50,211109,17306
2024-12-19 08:55:50,211501,17369
2024-12-19 08:55:50,212496,17356
2024-12-19 08:55:50,213730,17331
2024-12-19 08:55:50,214199,17253
2024-12-19 08:55:50,214416,17271
2024-12-19 08:55:50,213983,17244
2024-12-19 08:55:50,213204,17298
2024-12-19 08:55:50,212302,17361
2024-12-19 08:55:50,211698,17343
2024-12-19 08:55:50,211914,17351
2024-12-19 08:55:50,212979,17294
2024-12-19 08:55:50,213936,17216
2024-12-19 08:55:50,214369,17210
2024-12-19 08:55:50,214175,17276
2024-12-19 08:55:50,213164,17172
2024-12-19 08:55:50,212158,17215
2024-12-19 08:55:50,211254,17191
2024-12-19 08:55:50,211186,17186
2024-12-19 08:55:50,212001,17119
2024-12-19 08:55:50,212885,17083
2024-12-19 08:55:50,213476,16993
2024-12-19 08:55:50,213399,16918
2024-12-19 08:55:50,213047,16879
2024-12-19 08:55:50,211896,16798
2024-12-19 08:55:50,210701,16836
2024-12-19 08:55:50,209713,16771
2024-12-19 08:55:50,209784,16674
2024-12-19 08:55:50,210658,16658
2024-12-19 08:55:50,211602,16564
2024-12-19 08:55:50,211809,16416
2024-12-19 08:55:50,211259,16290
2024-12-19 08:55:50,210280,16258
2024-12-19 08:55:50,209342,16299
2024-12-19 08:55:50,208161,16313
2024-12-19 08:55:50,208122,16273
2024-12-19 08:55:50,208631,16148
2024-12-19 08:55:50,209644,16103
2024-12-19 08:55:50,210152,15976
2024-12-19 08:55:50,210087,15906
2024-12-19 08:55:50,209568,15851
2024-12-19 08:55:50,208589,15906
2024-12-19 08:55:50,207511,15899
2024-12-19 08:55:50,207174,15905
2024-12-19 08:55:50,206976,15873
2024-12-19 08:55:50,207800,15903
2024-12-19 08:55:50,208863,15857
2024-12-19 08:55:50,209494,15823
2024-12-19 08:55:50,209445,15745
2024-12-19 08:55:50,208770,15729
2024-12-19 08:55:50,207674,15711
2024-12-19 08:55:50,206643,15774
2024-12-19 08:55:50,206403,15768
2024-12-19 08:55:50,206879,15721
2024-12-19 08:55:50,208289,15738
2024-12-19 08:55:50,209151,15651
2024-12-19 08:55:50,209286,15703
2024-12-19 08:55:50,208842,15698
2024-12-19 08:55:50,207965,15775
2024-12-19 08:55:50,207114,15828
2024-12-19 08:55:50,206659,15818
2024-12-19 08:55:50,206793,15747
2024-12-19 08:55:50,207824,15678
2024-12-19 08:55:50,208409,15668
2024-12-19 08:55:50,209174,15711
2024-12-19 08:55:50,209291,15656
2024-12-19 08:55:50,208669,15689
2024-12-19 08:55:50,207641,15675
2024-12-19 08:55:50,206691,15719
2024-12-19 08:55:50,206393,15756
2024-12-19 08:55:50,206809,15769
2024-12-19 08:55:50,208084,15725
2024-12-19 08:55:50,208996,15679
2024-12-19 08:55:50,209379,15684
2024-12-19 08:55:50,209132,15724
2024-12-19 08:55:50,208304,15754
2024-12-19 08:55:50,207293,15801
2024-12-19 08:55:50,206550,15793
2024-12-19 08:55:50,206716,15759
2024-12-19 08:55:50,207763,15757
2024-12-19 08:55:50,208938,15729
2024-12-19 08:55:50,209663,15764
2024-12-19 08:55:50,209266,15719
2024-12-19 08:55:50,208851,15722
2024-12-19 08:55:50,207751,15659
2024-12-19 08:55:50,206853,15710
2024-12-19 08:55:50,206242,15771
2024-12-19 08:55:50,206707,15786
2024-12-19 08:55:50,207935,15709
2024-12-19 08:55:50,208835,15661
2024-12-19 08:55:50,209408,15649
2024-12-19 08:55:50,209111,15613
2024-12-19 08:55:50,208264,15669
2024-12-19 08:55:50,207334,15714
2024-12-19 08:55:50,206545,15774
2024-12-19 08:55:50,206699,15723
2024-12-19 08:55:50,207553,15762
2024-12-19 08:55:50,208631,15698
2024-12-19 08:55:50,209269,15691
2024-12-19 08:55:50,209130,15657
2024-12-19 08:55:50,208503,15674
2024-12-19 08:55:50,207498,15638
2024-12-19 08:55:50,206479,15729
2024-12-19 08:55:50,206293,15691
2024-12-19 08:55:50,206494,15738
2024-12-19 08:55:50,207591,15656
2024-12-19 08:55:50,208691,15613
2024-12-19 08:55:50,209383,15620
2024-12-19 08:55:50,209237,15584
2024-12-19 08:55:50,208414,15588
2024-12-19 08:55:50,207289,15583
2024-12-19 08:55:50,206413,15597
2024-12-19 08:55:50,206439,15638
2024-12-19 08:55:50,207375,15628
2024-12-19 08:55:50,208678,15615
2024-12-19 08:55:50,209312,15526
2024-12-19 08:55:50,209300,15557
2024-12-19 08:55:50,208756,15536
2024-12-19 08:55:50,207704,15550
2024-12-19 08:55:50,206859,15583
2024-12-19 08:55:50,206641,15581
2024-12-19 08:55:50,206891,15532
2024-12-19 08:55:50,208166,15551
2024-12-19 08:55:50,208653,15496
2024-12-19 08:55:50,209224,15555
2024-12-19 08:55:50,209104,15554
2024-12-19 08:55:50,208503,15562
2024-12-19 08:55:50,207545,15617
2024-12-19 08:55:50,206500,15591
2024-12-19 08:55:50,206343,15578
2024-12-19 08:55:50,206991,15540
2024-12-19 08:55:50,208307,15531
2024-12-19 08:55:50,209077,15512
2024-12-19 08:55:50,209200,15529
2024-12-19 08:55:50,208646,15478
2024-12-19 08:55:50,207696,15453
2024-12-19 08:55:50,206570,15481
2024-12-19 08:55:50,206274,15531
2024-12-19 08:55:50,206607,15488
2024-12-19 08:55:50,207723,15460
2024-12-19 08:55:50,208742,15463
2024-12-19 08:55:50,209023,15462
2024-12-19 08:55:50,208812,15404
2024-12-19 08:55:50,208390,15426
2024-12-19 08:55:50,207338,15446
2024-12-19 08:55:50,206214,15520
2024-12-19 08:55:50,205899,15448
2024-12-19 08:55:50,206278,15388
2024-12-19 08:55:50,207603,15373
2024-12-19 08:55:50,208549,15298
2024-12-19 08:55:50,208726,15364
2024-12-19 08:55:50,208406,15358
2024-12-19 08:55:50,207489,15328
2024-12-19 08:55:50,206710,15386
2024-12-19 08:55:50,206222,15411
2024-12-19 08:55:50,206406,15368
2024-12-19 08:55:50,207324,15357
2024-12-19 08:55:50,208307,15326
2024-12-19 08:55:50,208773,15317
2024-12-19 08:55:50,208709,15367
2024-12-19 08:55:50,208139,15325
2024-12-19 08:55:50,207149,15351
2024-12-19 08:55:50,206310,15323
2024-12-19 08:55:50,206249,15402
2024-12-19 08:55:50,206708,15366
2024-12-19 08:55:50,207705,15323
2024-12-19 08:55:50,208394,15256
2024-12-19 08:55:50,208754,15263
2024-12-19 08:55:50,208329,15239
2024-12-19 08:55:50,207582,15254
2024-12-19 08:55:50,206778,15284
2024-12-19 08:55:50,206176,15304
2024-12-19 08:55:50,206275,15348
2024-12-19 08:55:50,207254,15284
2024-12-19 08:55:50,208254,15232
2024-12-19 08:55:50,208678,15167
2024-12-19 08:55:50,208612,15244
2024-12-19 08:55:50,208203,15333
2024-12-19 08:55:50,207180,15323
2024-12-19 08:55:50,206211,15370
2024-12-19 08:55:50,206124,15411
2024-12-19 08:55:50,206868,15363
2024-12-19 08:55:50,207986,15285
2024-12-19 08:55:50,208378,15238
2024-12-19 08:55:50,208693,15203
2024-12-19 08:55:50,208434,15258
2024-12-19 08:55:50,207580,15201
2024-12-19 08:55:50,206613,15288
2024-12-19 08:55:50,205825,15235
2024-12-19 08:55:50,205997,15256
2024-12-19 08:55:50,206908,15280
2024-12-19 08:55:50,208084,15199
2024-12-19 08:55:50,208761,15219
2024-12-19 08:55:50,208643,15159
2024-12-19 08:55:50,207972,15188
2024-12-19 08:55:50,207033,15210
2024-12-19 08:55:50,205969,15227
2024-12-19 08:55:50,205759,15281
2024-12-19 08:55:50,206448,15211
2024-12-19 08:55:50,207702,15220
2024-12-19 08:55:50,208448,15181
2024-12-19 08:55:50,208594,15159
2024-12-19 08:55:50,208236,15236
2024-12-19 08:55:50,207749,15223
2024-12-19 08:55:50,206781,15168
2024-12-19 08:55:50,206090,15282
2024-12-19 08:55:50,206079,15258
2024-12-19 08:55:50,206728,15242
2024-12-19 08:55:50,207834,15263
2024-12-19 08:55:50,208563,15244
2024-12-19 08:55:50,208434,15203
2024-12-19 08:55:50,207888,15186
2024-12-19 08:55:50,206669,15190
2024-12-19 08:55:50,205400,15232
2024-12-19 08:55:50,204823,15209
2024-12-19 08:55:50,205266,15143
2024-12-19 08:55:50,206553,15135
2024-12-19 08:55:50,207341,15101
2024-12-19 08:55:50,207634,15173
2024-12-19 08:55:50,207566,15301
2024-12-19 08:55:50,206800,15342
2024-12-19 08:55:50,206009,15329
2024-12-19 08:55:50,205334,15338
2024-12-19 08:55:50,205413,15406
2024-12-19 08:55:50,205844,15397
2024-12-19 08:55:50,207007,15350
2024-12-19 08:55:50,207948,15315
2024-12-19 08:55:50,208193,15328
2024-12-19 08:55:50,207437,15165
2024-12-19 08:55:50,206904,15121
2024-12-19 08:55:50,206230,15229
2024-12-19 08:55:50,206165,15329
2024-12-19 08:55:50,206759,15342
2024-12-19 08:55:50,207989,15369
2024-12-19 08:55:50,208940,15205
2024-12-19 08:55:50,209383,15226
2024-12-19 08:55:50,209330,15229
2024-12-19 08:55:50,208353,15186
2024-12-19 08:55:50,207226,15241
2024-12-19 08:55:50,206423,15218
2024-12-19 08:55:50,206827,15328
2024-12-19 08:55:50,207544,15236
2024-12-19 08:55:50,208446,15145
2024-12-19 08:55:50,208838,15117
2024-12-19 08:55:50,209117,15054
2024-12-19 08:55:50,208756,15068
2024-12-19 08:55:50,207668,15153
2024-12-19 08:55:50,206619,15140
2024-12-19 08:55:50,206021,15205
2024-12-19 08:55:50,206308,15177
2024-12-19 08:55:50,207349,15009
2024-12-19 08:55:50,208477,15003
2024-12-19 08:55:50,208841,14942
2024-12-19 08:55:50,208721,14961
2024-12-19 08:55:50,208034,14956
2024-12-19 08:55:50,207092,15012
2024-12-19 08:55:50,206283,15008
2024-12-19 08:55:50,206499,15126
2024-12-19 08:55:50,207294,15107
2024-12-19 08:55:50,208356,15021
2024-12-19 08:55:50,209159,14992
2024-12-19 08:55:50,208900,14936
2024-12-19 08:55:50,208261,14993
2024-12-19 08:55:50,207844,14963
2024-12-19 08:55:50,206910,14993
2024-12-19 08:55:50,206076,15028
2024-12-19 08:55:50,206152,15003
2024-12-19 08:55:50,207033,14983
2024-12-19 08:55:50,208330,14939
2024-12-19 08:55:50,209019,14924
2024-12-19 08:55:50,208873,14959
2024-12-19 08:55:50,208193,14958
2024-12-19 08:55:50,207231,15039
2024-12-19 08:55:50,206423,15075
2024-12-19 08:55:50,206196,15041
2024-12-19 08:55:50,206895,15076
2024-12-19 08:55:50,207859,14962
2024-12-19 08:55:50,208784,14994
2024-12-19 08:55:50,208946,14996
2024-12-19 08:55:50,208542,15044
2024-12-19 08:55:50,208147,15170
2024-12-19 08:55:50,207966,15407
2024-12-19 08:55:50,208561,15739
2024-12-19 08:55:50,209038,15868
2024-12-19 08:55:50,210533,16108
2024-12-19 08:55:50,213238,16569
2024-12-19 08:55:50,215208,17165
2024-12-19 08:55:50,215283,17385
2024-12-19 08:55:50,214676,17789
2024-12-19 08:55:50,213434,18223
2024-12-19 08:55:50,210876,17884
2024-12-19 08:55:50,206661,16479
2024-12-19 08:55:50,202726,14531
2024-12-19 08:55:50,200274,12932
2024-12-19 08:55:50,199731,11800
2024-12-19 08:55:50,198119,10383
2024-12-19 08:55:50,193776,9374
2024-12-19 08:55:50,189556,8554
2024-12-19 08:55:50,188818,8129
2024-12-19 08:55:50,189798,7819
2024-12-19 08:55:50,190268,7525
2024-12-19 08:55:50,193009,7583
2024-12-19 08:55:50,196715,7931
2024-12-19 08:55:50,198740,8119
2024-12-19 08:55:50,201539,8491
2024-12-19 08:55:50,203172,9001
2024-12-19 08:55:50,203900,9885
2024-12-19 08:55:50,204056,10743
2024-12-19 08:55:50,204361,11544
2024-12-19 08:55:50,205246,12241
2024-12-19 08:55:50,207153,12974
2024-12-19 08:55:50,208664,13533
2024-12-19 08:55:50,208910,13873
2024-12-19 08:55:50,208331,14005
2024-12-19 08:55:50,207471,14296
2024-12-19 08:55:50,206391,14593
2024-12-19 08:55:50,205881,14844
2024-12-19 08:55:50,206371,14934
2024-12-19 08:55:50,207543,14978
2024-12-19 08:55:50,208739,15011
2024-12-19 08:55:50,209440,14999
2024-12-19 08:55:50,209135,15118
2024-12-19 08:55:50,208464,15076
2024-12-19 08:55:50,208159,15070
2024-12-19 08:55:50,207162,15181
2024-12-19 08:55:50,206518,15227
2024-12-19 08:55:50,207011,15253
2024-12-19 08:55:50,208264,15201
2024-12-19 08:55:50,209515,15364
2024-12-19 08:55:50,209969,15250
2024-12-19 08:55:50,209677,15294
2024-12-19 08:55:50,208647,15353
2024-12-19 08:55:50,207973,15307
2024-12-19 08:55:50,207064,15398
2024-12-19 08:55:50,207316,15514
2024-12-19 08:55:50,208116,15472
2024-12-19 08:55:50,209311,15432
2024-12-19 08:55:50,209911,15420
2024-12-19 08:55:50,209828,15481
2024-12-19 08:55:50,209207,15486
2024-12-19 08:55:50,208336,15471
2024-12-19 08:55:50,207358,15601
2024-12-19 08:55:50,207414,15561
2024-12-19 08:55:50,207511,15558
2024-12-19 08:55:50,208604,15576
2024-12-19 08:55:50,209714,15594
2024-12-19 08:55:50,210237,15618
2024-12-19 08:55:50,209917,15548
2024-12-19 08:55:50,209211,15518
2024-12-19 08:55:50,208462,15652
2024-12-19 08:55:50,207691,15688
2024-12-19 08:55:50,207702,15719
2024-12-19 08:55:50,208543,15700
2024-12-19 08:55:50,209786,15735
2024-12-19 08:55:50,210671,15698
2024-12-19 08:55:50,210542,15760
2024-12-19 08:55:50,210083,15704
2024-12-19 08:55:50,209098,15829
2024-12-19 08:55:50,208138,15790
2024-12-19 08:55:50,207965,15936
2024-12-19 08:55:50,208556,15882
2024-12-19 08:55:50,209755,15861
2024-12-19 08:55:50,210546,15909
2024-12-19 08:55:50,210769,15921
2024-12-19 08:55:50,210704,15866
2024-12-19 08:55:50,210154,15883
2024-12-19 08:55:50,209449,15987
2024-12-19 08:55:50,208558,16075
2024-12-19 08:55:50,208542,16156
2024-12-19 08:55:50,209259,16159
2024-12-19 08:55:50,210396,16036
2024-12-19 08:55:50,211434,16164
2024-12-19 08:55:50,211695,16146
2024-12-19 08:55:50,211404,16101
2024-12-19 08:55:50,210624,16180
2024-12-19 08:55:50,209790,16196
2024-12-19 08:55:50,209628,16294
2024-12-19 08:55:50,210127,16326
2024-12-19 08:55:50,211390,16285
2024-12-19 08:55:50,212103,16319
2024-12-19 08:55:50,212699,16260
2024-12-19 08:55:50,212433,16296
2024-12-19 08:55:50,211533,16375
2024-12-19 08:55:50,211136,16349
2024-12-19 08:55:50,210558,16352
2024-12-19 08:55:50,210664,16454
2024-12-19 08:55:50,211269,16514
2024-12-19 08:55:50,212559,16491
2024-12-19 08:55:50,213559,16435
2024-12-19 08:55:50,213790,16446
2024-12-19 08:55:50,213376,16379
2024-12-19 08:55:50,212679,16539
2024-12-19 08:55:50,211754,16529
2024-12-19 08:55:50,211200,16569
2024-12-19 08:55:50,211433,16603
2024-12-19 08:55:50,212538,16518
2024-12-19 08:55:50,213604,16369
2024-12-19 08:55:50,214229,16444
2024-12-19 08:55:50,213989,16481
2024-12-19 08:55:50,213311,16429
2024-12-19 08:55:50,212203,16517
2024-12-19 08:55:50,211180,16409
2024-12-19 08:55:50,211214,16434
2024-12-19 08:55:50,211476,16445
2024-12-19 08:55:50,212805,16423
2024-12-19 08:55:50,213454,16341
2024-12-19 08:55:50,213686,16290
2024-12-19 08:55:50,213167,16156
2024-12-19 08:55:50,212174,16149
2024-12-19 08:55:51,211011,16159
2024-12-19 08:55:51,210265,16104
2024-12-19 08:55:51,210254,16053
2024-12-19 08:55:51,210717,15929
2024-12-19 08:55:51,211433,15644
2024-12-19 08:55:51,211939,15641
2024-12-19 08:55:51,211691,15473
2024-12-19 08:55:51,210744,15503
2024-12-19 08:55:51,209443,15478
2024-12-19 08:55:51,208198,15430
2024-12-19 08:55:51,207778,15408
2024-12-19 08:55:51,208879,15301
2024-12-19 08:55:51,209694,15254
2024-12-19 08:55:51,210050,15112
2024-12-19 08:55:51,210031,15091
2024-12-19 08:55:51,209744,14904
2024-12-19 08:55:51,208833,15056
2024-12-19 08:55:51,207624,14973
2024-12-19 08:55:51,206624,15006
2024-12-19 08:55:51,206879,15026
2024-12-19 08:55:51,207579,14967
2024-12-19 08:55:51,208888,14936
2024-12-19 08:55:51,209346,14958
2024-12-19 08:55:51,208819,14919
2024-12-19 08:55:51,208424,14853
2024-12-19 08:55:51,207309,14859
2024-12-19 08:55:51,206156,14923
2024-12-19 08:55:51,206213,14797
2024-12-19 08:55:51,206745,14817
2024-12-19 08:55:51,208076,14832
2024-12-19 08:55:51,208803,14833
2024-12-19 08:55:51,208732,14774
2024-12-19 08:55:51,208283,14746
2024-12-19 08:55:51,207429,14753
2024-12-19 08:55:51,206963,14816
2024-12-19 08:55:51,206117,14821
2024-12-19 08:55:51,206066,14831
2024-12-19 08:55:51,206909,14875
2024-12-19 08:55:51,208090,14795
2024-12-19 08:55:51,208928,14819
2024-12-19 08:55:51,208701,14813
2024-12-19 08:55:51,208522,14788
2024-12-19 08:55:51,207355,14862
2024-12-19 08:55:51,206195,14873
2024-12-19 08:55:51,206036,14863
2024-12-19 08:55:51,206656,14966
2024-12-19 08:55:51,207917,14846
2024-12-19 08:55:51,208736,14831
2024-12-19 08:55:51,208919,14771
2024-12-19 08:55:51,208465,14726
2024-12-19 08:55:51,207496,14799
2024-12-19 08:55:51,206513,14836
2024-12-19 08:55:51,205981,14919
2024-12-19 08:55:51,206474,14894
2024-12-19 08:55:51,206858,14908
2024-12-19 08:55:51,207997,14803
2024-12-19 08:55:51,208911,14791
2024-12-19 08:55:51,209178,14845
2024-12-19 08:55:51,208372,14881
2024-12-19 08:55:51,207410,14800
2024-12-19 08:55:51,206624,14869
2024-12-19 08:55:51,206383,14973
2024-12-19 08:55:51,206554,14970
2024-12-19 08:55:51,207758,14886
2024-12-19 08:55:51,208768,14892
2024-12-19 08:55:51,208986,14849
2024-12-19 08:55:51,208781,14807
2024-12-19 08:55:51,208304,14933
2024-12-19 08:55:51,207006,14899
2024-12-19 08:55:51,206149,14946
2024-12-19 08:55:51,206371,14866
2024-12-19 08:55:51,207166,14898
2024-12-19 08:55:51,208589,14837
2024-12-19 08:55:51,208905,14902
2024-12-19 08:55:51,209000,14887
2024-12-19 08:55:51,208696,14926
2024-12-19 08:55:51,207766,14874
2024-12-19 08:55:51,206909,14952
2024-12-19 08:55:51,206431,14843
2024-12-19 08:55:51,206665,14896
2024-12-19 08:55:51,207559,14906
2024-12-19 08:55:51,208609,14791
2024-12-19 08:55:51,209248,14821
2024-12-19 08:55:51,209027,14813
2024-12-19 08:55:51,208203,14808
2024-12-19 08:55:51,207074,14896
2024-12-19 08:55:51,206462,14894
2024-12-19 08:55:51,206728,14812
2024-12-19 08:55:51,207448,14783
2024-12-19 08:55:51,208735,14779
2024-12-19 08:55:51,209390,14765
2024-12-19 08:55:51,209083,14689
2024-12-19 08:55:51,208313,14699
2024-12-19 08:55:51,207959,14739
2024-12-19 08:55:51,206915,14774
2024-12-19 08:55:51,206108,14768
2024-12-19 08:55:51,206413,14746
2024-12-19 08:55:51,207603,14730
2024-12-19 08:55:51,208682,14710
2024-12-19 08:55:51,209247,14651
2024-12-19 08:55:51,208955,14669
2024-12-19 08:55:51,208298,14694
2024-12-19 08:55:51,207437,14674
2024-12-19 08:55:51,206462,14784
2024-12-19 08:55:51,206378,14641
2024-12-19 08:55:51,207236,14704
2024-12-19 08:55:51,208448,14676
2024-12-19 08:55:51,209242,14599
2024-12-19 08:55:51,209114,14583
2024-12-19 08:55:51,208596,14559
2024-12-19 08:55:51,207703,14699
2024-12-19 08:55:51,206606,14702
2024-12-19 08:55:51,206346,14711
2024-12-19 08:55:51,206514,14654
2024-12-19 08:55:51,207441,14721
2024-12-19 08:55:51,208396,14647
2024-12-19 08:55:51,209036,14594
2024-12-19 08:55:51,209089,14522
2024-12-19 08:55:51,208514,14673
2024-12-19 08:55:51,207563,14592
2024-12-19 08:55:51,206561,14580
2024-12-19 08:55:51,206368,14645
2024-12-19 08:55:51,207183,14628
2024-12-19 08:55:51,208144,14579
2024-12-19 08:55:51,208999,14536
2024-12-19 08:55:51,209164,14574
2024-12-19 08:55:51,208687,14514
2024-12-19 08:55:51,207970,14580
2024-12-19 08:55:51,206859,14553
2024-12-19 08:55:51,206221,14546
2024-12-19 08:55:51,206627,14528
2024-12-19 08:55:51,207945,14498
2024-12-19 08:55:51,208928,14497
2024-12-19 08:55:51,209336,14516
2024-12-19 08:55:51,209381,14603
2024-12-19 08:55:51,208477,14496
2024-12-19 08:55:51,207611,14546
2024-12-19 08:55:51,206537,14571
2024-12-19 08:55:51,206268,14579
2024-12-19 08:55:51,206906,14549
2024-12-19 08:55:51,208203,14488
2024-12-19 08:55:51,209074,14511
2024-12-19 08:55:51,209076,14506
2024-12-19 08:55:51,208940,14486
2024-12-19 08:55:51,208048,14478
2024-12-19 08:55:51,207053,14578
2024-12-19 08:55:51,206338,14501
2024-12-19 08:55:51,206990,14638
2024-12-19 08:55:51,207865,14554
2024-12-19 08:55:51,208948,14537
2024-12-19 08:55:51,209408,14510
2024-12-19 08:55:51,209116,14506
2024-12-19 08:55:51,208459,14511
2024-12-19 08:55:51,207880,14478
2024-12-19 08:55:51,207088,14562
2024-12-19 08:55:51,206528,14543
2024-12-19 08:55:51,206843,14556
2024-12-19 08:55:51,208094,14425
2024-12-19 08:55:51,209301,14481
2024-12-19 08:55:51,209204,14479
2024-12-19 08:55:51,209151,14493
2024-12-19 08:55:51,208172,14431
2024-12-19 08:55:51,207158,14563
2024-12-19 08:55:51,206508,14526
2024-12-19 08:55:51,206569,14558
2024-12-19 08:55:51,207523,14572
2024-12-19 08:55:51,208551,14515
2024-12-19 08:55:51,209166,14465
2024-12-19 08:55:51,209146,14446
2024-12-19 08:55:51,208483,14394
2024-12-19 08:55:51,207549,14517
2024-12-19 08:55:51,206703,14529
2024-12-19 08:55:51,206783,14598
2024-12-19 08:55:51,207031,14608
2024-12-19 08:55:51,208074,14594
2024-12-19 08:55:51,209153,14587
2024-12-19 08:55:51,209645,14509
2024-12-19 08:55:51,209258,14528
2024-12-19 08:55:51,208324,14489
2024-12-19 08:55:51,207471,14599
2024-12-19 08:55:51,206671,14484
2024-12-19 08:55:51,206743,14568
2024-12-19 08:55:51,207541,14468
2024-12-19 08:55:51,208859,14481
2024-12-19 08:55:51,209456,14461
2024-12-19 08:55:51,209149,14383
2024-12-19 08:55:51,208399,14464
2024-12-19 08:55:51,207466,14468
2024-12-19 08:55:51,206538,14583
2024-12-19 08:55:51,206234,14561
2024-12-19 08:55:51,206497,14531
2024-12-19 08:55:51,207514,14464
2024-12-19 08:55:51,208332,14506
2024-12-19 08:55:51,208446,14378
2024-12-19 08:55:51,208446,14478
2024-12-19 08:55:51,207711,14494
2024-12-19 08:55:51,206819,14573
2024-12-19 08:55:51,206203,14701
2024-12-19 08:55:51,206148,14729
2024-12-19 08:55:51,207054,14757
2024-12-19 08:55:51,208092,14711
2024-12-19 08:55:51,208653,14582
2024-12-19 08:55:51,208782,14608
2024-12-19 08:55:51,208535,14622
2024-12-19 08:55:51,207595,14573
2024-12-19 08:55:51,206576,14554
2024-12-19 08:55:51,206473,14589
2024-12-19 08:55:51,207237,14578
2024-12-19 08:55:51,208708,14659
2024-12-19 08:55:51,210103,14622
2024-12-19 08:55:51,210571,14621
2024-12-19 08:55:51,210080,14549
2024-12-19 08:55:51,209092,14440
2024-12-19 08:55:51,208736,14522
2024-12-19 08:55:51,207676,14561
2024-12-19 08:55:51,207227,14583
2024-12-19 08:55:51,207801,14646
2024-12-19 08:55:51,209278,14636
2024-12-19 08:55:51,209786,14645
2024-12-19 08:55:51,209794,14411
2024-12-19 08:55:51,209296,14487
2024-12-19 08:55:51,208419,14403
2024-12-19 08:55:51,207387,14449
2024-12-19 08:55:51,206864,14558
2024-12-19 08:55:51,207156,14518
2024-12-19 08:55:51,208542,14585
2024-12-19 08:55:51,209531,14510
2024-12-19 08:55:51,210034,14529
2024-12-19 08:55:51,209854,14474
2024-12-19 08:55:51,208669,14398
2024-12-19 08:55:51,207944,14481
2024-12-19 08:55:51,207149,14572
2024-12-19 08:55:51,207125,14445
2024-12-19 08:55:51,207425,14423
2024-12-19 08:55:51,208901,14477
2024-12-19 08:55:51,209691,14444
2024-12-19 08:55:51,210180,14544
2024-12-19 08:55:51,209738,14513
2024-12-19 08:55:51,208746,14456
2024-12-19 08:55:51,207562,14403
2024-12-19 08:55:51,207250,14456
2024-12-19 08:55:51,207434,14492
2024-12-19 08:55:51,208346,14451
2024-12-19 08:55:51,209321,14453
2024-12-19 08:55:51,209832,14371
2024-12-19 08:55:51,209726,14410
2024-12-19 08:55:51,208823,14378
2024-12-19 08:55:51,208166,14447
2024-12-19 08:55:51,207179,14527
2024-12-19 08:55:51,207281,14484
2024-12-19 08:55:51,208098,14511
2024-12-19 08:55:51,209194,14431
2024-12-19 08:55:51,209905,14394
2024-12-19 08:55:51,209860,14361
2024-12-19 08:55:51,209473,14453
2024-12-19 08:55:51,208546,14438
2024-12-19 08:55:51,208074,14608
2024-12-19 08:55:51,207702,14721
2024-12-19 08:55:51,208559,14860
2024-12-19 08:55:51,210473,15086
2024-12-19 08:55:51,212317,15364
2024-12-19 08:55:51,213965,15536
2024-12-19 08:55:51,215291,16133
2024-12-19 08:55:51,215921,16599
2024-12-19 08:55:51,215190,17036
2024-12-19 08:55:51,214171,17251
2024-12-19 08:55:51,213987,17776
2024-12-19 08:55:51,213066,17422
2024-12-19 08:55:51,210163,15918
2024-12-19 08:55:51,206532,14043
2024-12-19 08:55:51,202391,12505
2024-12-19 08:55:51,200741,11268
2024-12-19 08:55:51,197661,9959
2024-12-19 08:55:51,195816,9451
2024-12-19 08:55:51,190587,8536
2024-12-19 08:55:51,188503,7816
2024-12-19 08:55:51,191059,7583
2024-12-19 08:55:51,192833,7110
2024-12-19 08:55:51,194809,7005
2024-12-19 08:55:51,196606,7160
2024-12-19 08:55:51,199508,7751
2024-12-19 08:55:51,201554,8177
2024-12-19 08:55:51,202807,8811
2024-12-19 08:55:51,204362,9759
2024-12-19 08:55:51,206015,10485
2024-12-19 08:55:51,207881,11313
2024-12-19 08:55:51,208698,11866
2024-12-19 08:55:51,209763,12589
2024-12-19 08:55:51,209863,13109
2024-12-19 08:55:51,209054,13533
2024-12-19 08:55:51,207693,13790
2024-12-19 08:55:51,207218,14054
2024-12-19 08:55:51,207310,14204
2024-12-19 08:55:51,207717,14312
2024-12-19 08:55:51,209003,14346
2024-12-19 08:55:51,210120,14495
2024-12-19 08:55:51,210500,14604
2024-12-19 08:55:51,210011,14579
2024-12-19 08:55:51,209107,14629
2024-12-19 08:55:51,208236,14743
2024-12-19 08:55:51,207553,14759
2024-12-19 08:55:51,208184,14790
2024-12-19 08:55:51,209401,14763
2024-12-19 08:55:51,210585,14800
2024-12-19 08:55:51,210659,14764
2024-12-19 08:55:51,210708,14873
2024-12-19 08:55:51,209578,14780
2024-12-19 08:55:51,208760,14882
2024-12-19 08:55:51,208488,14994
2024-12-19 08:55:51,208578,15029
2024-12-19 08:55:51,209574,15053
2024-12-19 08:55:51,210567,14915
2024-12-19 08:55:51,211226,14852
2024-12-19 08:55:51,211161,14878
2024-12-19 08:55:51,210938,14991
2024-12-19 08:55:51,209928,14914
2024-12-19 08:55:51,209369,15142
2024-12-19 08:55:51,208656,15098
2024-12-19 08:55:51,208988,15084
2024-12-19 08:55:51,210173,15129
2024-12-19 08:55:51,211208,15074
2024-12-19 08:55:51,211658,15110
2024-12-19 08:55:51,211457,15103
2024-12-19 08:55:51,210363,15048
2024-12-19 08:55:51,209744,15177
2024-12-19 08:55:51,208944,15202
2024-12-19 08:55:51,209073,15216
2024-12-19 08:55:51,210241,15109
2024-12-19 08:55:51,211476,15294
2024-12-19 08:55:51,211886,15235
2024-12-19 08:55:51,211704,15190
2024-12-19 08:55:51,211204,15190
2024-12-19 08:55:51,210223,15309
2024-12-19 08:55:51,209970,15330
2024-12-19 08:55:51,209251,15384
2024-12-19 08:55:51,209541,15485
2024-12-19 08:55:51,210638,15478
2024-12-19 08:55:51,211737,15377
2024-12-19 08:55:51,212699,15430
2024-12-19 08:55:51,212428,15446
2024-12-19 08:55:51,211473,15497
2024-12-19 08:55:51,210798,15568
2024-12-19 08:55:51,209914,15582
2024-12-19 08:55:51,209730,15517
2024-12-19 08:55:51,210448,15554
2024-12-19 08:55:51,211801,15496
2024-12-19 08:55:51,213117,15716
2024-12-19 08:55:51,213162,15549
2024-12-19 08:55:51,212736,15777
2024-12-19 08:55:51,211529,15619
2024-12-19 08:55:51,210526,15759
2024-12-19 08:55:51,210569,15801
2024-12-19 08:55:51,211334,15883
2024-12-19 08:55:51,212106,15857
2024-12-19 08:55:51,213392,15863
2024-12-19 08:55:51,214007,15841
2024-12-19 08:55:51,214052,15856
2024-12-19 08:55:51,213300,15871
2024-12-19 08:55:51,212668,15965
2024-12-19 08:55:51,211772,15944
2024-12-19 08:55:51,211947,16066
2024-12-19 08:55:51,212792,16116
2024-12-19 08:55:51,213957,16020
2024-12-19 08:55:51,215078,16056
2024-12-19 08:55:51,215115,16008
2024-12-19 08:55:51,214978,16108
2024-12-19 08:55:51,213901,16194
2024-12-19 08:55:51,212866,16096
2024-12-19 08:55:51,212607,16169
2024-12-19 08:55:51,213188,16208
2024-12-19 08:55:51,214315,16176
2024-12-19 08:55:51,215199,16166
2024-12-19 08:55:51,215615,16104
2024-12-19 08:55:51,215439,16123
2024-12-19 08:55:51,214959,16117
2024-12-19 08:55:51,213978,16120
2024-12-19 08:55:51,213246,16176
2024-12-19 08:55:51,213000,16224
2024-12-19 08:55:51,213372,16232
2024-12-19 08:55:51,214614,16163
2024-12-19 08:55:51,215335,16103
2024-12-19 08:55:51,215352,15975
2024-12-19 08:55:51,214746,15931
2024-12-19 08:55:51,213745,15893
2024-12-19 08:55:51,212757,15958
2024-12-19 08:55:51,212078,15948
2024-12-19 08:55:51,212436,15828
2024-12-19 08:55:51,213230,15775
2024-12-19 08:55:51,213650,15690
2024-12-19 08:55:51,214037,15646
2024-12-19 08:55:51,213538,15555
2024-12-19 08:55:51,212395,15492
2024-12-19 08:55:51,211369,15537
2024-12-19 08:55:51,210825,15589
2024-12-19 08:55:51,210289,15522
2024-12-19 08:55:51,210325,15443
2024-12-19 08:55:51,211370,15419
2024-12-19 08:55:51,212059,15358
2024-12-19 08:55:51,211972,15282
2024-12-19 08:55:51,211296,15236
2024-12-19 08:55:51,210004,15081
2024-12-19 08:55:51,209048,15101
2024-12-19 08:55:51,208284,15131
2024-12-19 08:55:51,208356,15102
2024-12-19 08:55:51,209191,15069
2024-12-19 08:55:51,210372,15046
2024-12-19 08:55:51,211015,14998
2024-12-19 08:55:51,210703,14958
2024-12-19 08:55:51,209896,14907
2024-12-19 08:55:51,208765,14956
2024-12-19 08:55:51,207703,15004
2024-12-19 08:55:51,207697,15054
2024-12-19 08:55:51,208220,14949
2024-12-19 08:55:51,208922,14937
2024-12-19 08:55:51,209964,14954
2024-12-19 08:55:51,210366,14908
2024-12-19 08:55:51,210021,14834
2024-12-19 08:55:51,209187,14796
2024-12-19 08:55:51,208112,14836
2024-12-19 08:55:51,207101,14834
2024-12-19 08:55:51,207404,14914
2024-12-19 08:55:51,208316,14954
2024-12-19 08:55:51,209339,14807
2024-12-19 08:55:51,210267,14789
2024-12-19 08:55:51,210016,14798
2024-12-19 08:55:51,209503,14771
2024-12-19 08:55:51,208367,14795
2024-12-19 08:55:51,207274,14859
2024-12-19 08:55:51,207286,14942
2024-12-19 08:55:51,207810,14843
2024-12-19 08:55:51,209133,14811
2024-12-19 08:55:51,210121,14806
2024-12-19 08:55:51,210223,14828
2024-12-19 08:55:51,210109,14786
2024-12-19 08:55:51,209569,14868
2024-12-19 08:55:51,208565,14874
2024-12-19 08:55:51,207639,14950
2024-12-19 08:55:51,207533,14924
2024-12-19 08:55:51,208146,14932
2024-12-19 08:55:51,209271,14856
2024-12-19 08:55:51,210274,14908
2024-12-19 08:55:51,210419,14938
2024-12-19 08:55:51,209838,14849
2024-12-19 08:55:51,208739,14860
2024-12-19 08:55:51,207843,14972
2024-12-19 08:55:51,207423,14928
2024-12-19 08:55:51,208039,14987
2024-12-19 08:55:51,209386,14992
2024-12-19 08:55:51,210239,14870
2024-12-19 08:55:51,210370,14919
2024-12-19 08:55:51,209897,14813
2024-12-19 08:55:51,208966,14847
2024-12-19 08:55:51,208243,14961
2024-12-19 08:55:51,207708,14941
2024-12-19 08:55:51,207589,14907
2024-12-19 08:55:51,208228,14923
2024-12-19 08:55:51,209511,14943
2024-12-19 08:55:51,210472,14914
2024-12-19 08:55:51,210506,14876
2024-12-19 08:55:51,210023,14947
2024-12-19 08:55:51,208949,14890
2024-12-19 08:55:51,208086,14990
2024-12-19 08:55:51,207583,15044
2024-12-19 08:55:51,207994,14993
2024-12-19 08:55:51,209174,14950
2024-12-19 08:55:51,210121,14940
2024-12-19 08:55:51,210551,14869
2024-12-19 08:55:51,210364,14851
2024-12-19 08:55:51,209527,14854
2024-12-19 08:55:51,208475,14869
2024-12-19 08:55:51,207681,14939
2024-12-19 08:55:51,207741,14938
2024-12-19 08:55:51,208830,14968
2024-12-19 08:55:51,209504,14923
2024-12-19 08:55:51,210376,14823
2024-12-19 08:55:51,210621,14856
2024-12-19 08:55:51,210086,14843
2024-12-19 08:55:51,209148,14890
2024-12-19 08:55:51,208281,14921
2024-12-19 08:55:51,207658,15020
2024-12-19 08:55:51,207933,14919
2024-12-19 08:55:51,209091,14974
2024-12-19 08:55:51,210232,14926
2024-12-19 08:55:51,210795,14903
2024-12-19 08:55:51,210473,14841
2024-12-19 08:55:51,209738,14865
2024-12-19 08:55:51,208691,14878
2024-12-19 08:55:51,207854,14917
2024-12-19 08:55:51,207893,14915
2024-12-19 08:55:51,208781,14904
2024-12-19 08:55:51,209809,14780
2024-12-19 08:55:51,210608,14832
2024-12-19 08:55:51,210448,14784
2024-12-19 08:55:51,210103,14791
2024-12-19 08:55:51,209208,14798
2024-12-19 08:55:51,208358,14833
2024-12-19 08:55:51,207731,14901
2024-12-19 08:55:51,207740,14864
2024-12-19 08:55:51,208719,14892
2024-12-19 08:55:51,209843,14826
2024-12-19 08:55:51,210404,14847
2024-12-19 08:55:51,210121,14796
2024-12-19 08:55:51,209502,14788
2024-12-19 08:55:51,208529,14836
2024-12-19 08:55:51,207705,14922
2024-12-19 08:55:51,207698,15099
2024-12-19 08:55:51,208239,15160
2024-12-19 08:55:51,209536,15110
2024-12-19 08:55:51,210340,15055
2024-12-19 08:55:51,210377,15006
2024-12-19 08:55:51,209706,15021
2024-12-19 08:55:51,208644,14943
2024-12-19 08:55:51,207675,14998
2024-12-19 08:55:51,207384,15011
2024-12-19 08:55:51,207516,15003
2024-12-19 08:55:51,208381,14947
2024-12-19 08:55:51,209675,15013
2024-12-19 08:55:51,210284,14924
2024-12-19 08:55:51,210135,14870
2024-12-19 08:55:52,209554,14843
2024-12-19 08:55:52,208631,14897
2024-12-19 08:55:52,207549,14888
2024-12-19 08:55:52,207424,14932
2024-12-19 08:55:52,207891,14937
2024-12-19 08:55:52,209397,14923
2024-12-19 08:55:52,210259,14842
2024-12-19 08:55:52,210328,14798
2024-12-19 08:55:52,209964,14771
2024-12-19 08:55:52,209036,14814
2024-12-19 08:55:52,208021,14823
2024-12-19 08:55:52,207522,14834
2024-12-19 08:55:52,207873,14878
2024-12-19 08:55:52,209004,14826
2024-12-19 08:55:52,209589,14854
2024-12-19 08:55:52,210408,14820
2024-12-19 08:55:52,210561,14758
2024-12-19 08:55:52,209994,14758
2024-12-19 08:55:52,208916,14773
2024-12-19 08:55:52,207939,14805
2024-12-19 08:55:52,207509,14791
2024-12-19 08:55:52,208073,14803
2024-12-19 08:55:52,209278,14797
2024-12-19 08:55:52,210162,14736
2024-12-19 08:55:52,210332,14680
2024-12-19 08:55:52,209991,14665
2024-12-19 08:55:52,209109,14684
2024-12-19 08:55:52,208191,14761
2024-12-19 08:55:52,207494,14761
2024-12-19 08:55:52,207797,14741
2024-12-19 08:55:52,208747,14718
2024-12-19 08:55:52,209878,14773
2024-12-19 08:55:52,210396,14711
2024-12-19 08:55:52,210301,14734
2024-12-19 08:55:52,209719,14646
2024-12-19 08:55:52,208583,14636
2024-12-19 08:55:52,207852,14753
2024-12-19 08:55:52,207598,14758
2024-12-19 08:55:52,207985,14741
2024-12-19 08:55:52,209019,14689
2024-12-19 08:55:52,209990,14663
2024-12-19 08:55:52,210334,14629
2024-12-19 08:55:52,210010,14601
2024-12-19 08:55:52,209133,14684
2024-12-19 08:55:52,208296,14667
2024-12-19 08:55:52,207448,14796
2024-12-19 08:55:52,207887,14838
2024-12-19 08:55:52,208736,14763
2024-12-19 08:55:52,209803,14676
2024-12-19 08:55:52,210479,14732
2024-12-19 08:55:52,210149,14673
2024-12-19 08:55:52,209456,14761
2024-12-19 08:55:52,208264,14768
2024-12-19 08:55:52,207647,14755
2024-12-19 08:55:52,206773,14768
2024-12-19 08:55:52,206842,14724
2024-12-19 08:55:52,207798,14618
2024-12-19 08:55:52,208812,14586
2024-12-19 08:55:52,209428,14591
2024-12-19 08:55:52,209491,14729
2024-12-19 08:55:52,208785,14801
2024-12-19 08:55:52,207979,14888
2024-12-19 08:55:52,207218,14923
2024-12-19 08:55:52,207233,14933
2024-12-19 08:55:52,207910,14936
2024-12-19 08:55:52,208931,14914
2024-12-19 08:55:52,209712,14929
2024-12-19 08:55:52,209687,14814
2024-12-19 08:55:52,209103,14771
2024-12-19 08:55:52,208213,14673
2024-12-19 08:55:52,207651,14706
2024-12-19 08:55:52,207685,14712
2024-12-19 08:55:52,208691,14805
2024-12-19 08:55:52,209408,14752
2024-12-19 08:55:52,210684,14746
2024-12-19 08:55:52,211055,14625
2024-12-19 08:55:52,210706,14610
2024-12-19 08:55:52,210138,14660
2024-12-19 08:55:52,209173,14713
2024-12-19 08:55:52,208159,14786
2024-12-19 08:55:52,208139,14829
2024-12-19 08:55:52,208785,14787
2024-12-19 08:55:52,209750,14731
2024-12-19 08:55:52,210606,14665
2024-12-19 08:55:52,210540,14622
2024-12-19 08:55:52,210150,14658
2024-12-19 08:55:52,209281,14668
2024-12-19 08:55:52,208028,14703
2024-12-19 08:55:52,207572,14688
2024-12-19 08:55:52,208156,14768
2024-12-19 08:55:52,209261,14676
2024-12-19 08:55:52,210340,14659
2024-12-19 08:55:52,210674,14649
2024-12-19 08:55:52,210559,14604
2024-12-19 08:55:52,209943,14582
2024-12-19 08:55:52,208972,14632
2024-12-19 08:55:52,207910,14716
2024-12-19 08:55:52,207628,14718
2024-12-19 08:55:52,208176,14656
2024-12-19 08:55:52,209322,14622
2024-12-19 08:55:52,210094,14526
2024-12-19 08:55:52,210253,14521
2024-12-19 08:55:52,209960,14506
2024-12-19 08:55:52,209171,14616
2024-12-19 08:55:52,208116,14654
2024-12-19 08:55:52,207584,14650
2024-12-19 08:55:52,208095,14728
2024-12-19 08:55:52,209171,14643
2024-12-19 08:55:52,210214,14600
2024-12-19 08:55:52,210731,14641
2024-12-19 08:55:52,210438,14634
2024-12-19 08:55:52,209514,14721
2024-12-19 08:55:52,208524,14643
2024-12-19 08:55:52,207987,14616
2024-12-19 08:55:52,207708,14657
2024-12-19 08:55:52,208104,14656
2024-12-19 08:55:52,209489,14648
2024-12-19 08:55:52,210403,14593
2024-12-19 08:55:52,210534,14577
2024-12-19 08:55:52,210344,14618
2024-12-19 08:55:52,209802,14751
2024-12-19 08:55:52,209087,14838
2024-12-19 08:55:52,209252,15050
2024-12-19 08:55:52,210499,15293
2024-12-19 08:55:52,212292,15511
2024-12-19 08:55:52,214193,15756
2024-12-19 08:55:52,216559,16226
2024-12-19 08:55:52,217857,16748
2024-12-19 08:55:52,217234,17094
2024-12-19 08:55:52,216663,17450
2024-12-19 08:55:52,215161,17915
2024-12-19 08:55:52,213315,17682
2024-12-19 08:55:52,209769,16329
2024-12-19 08:55:52,208307,15413
2024-12-19 08:55:52,204492,13735
2024-12-19 08:55:52,202643,12769
2024-12-19 08:55:52,200791,11489
2024-12-19 08:55:52,196490,10470
2024-12-19 08:55:52,190989,9547
2024-12-19 08:55:52,188926,9082
2024-12-19 08:55:52,190403,8620
2024-12-19 08:55:52,191230,8053
2024-12-19 08:55:52,193445,7856
2024-12-19 08:55:52,196133,7880
2024-12-19 08:55:52,199763,8269
2024-12-19 08:55:52,201834,8547
2024-12-19 08:55:52,203063,9145
2024-12-19 08:55:52,204283,9913
2024-12-19 08:55:52,205563,10766
2024-12-19 08:55:52,206817,11513
2024-12-19 08:55:52,208689,12129
2024-12-19 08:55:52,210294,12814
2024-12-19 08:55:52,211032,13361
2024-12-19 08:55:52,211044,13552
2024-12-19 08:55:52,209959,13749
2024-12-19 08:55:52,208806,13986
2024-12-19 08:55:52,207759,14221
2024-12-19 08:55:52,207901,14403
2024-12-19 08:55:52,209022,14598
2024-12-19 08:55:52,210600,14604
2024-12-19 08:55:52,211405,14604
2024-12-19 08:55:52,211257,14657
2024-12-19 08:55:52,210942,14703
2024-12-19 08:55:52,210036,14805
2024-12-19 08:55:52,209028,14838
2024-12-19 08:55:52,208748,14876
2024-12-19 08:55:52,209483,14951
2024-12-19 08:55:52,210763,14902
2024-12-19 08:55:52,211668,14894
2024-12-19 08:55:52,211895,14890
2024-12-19 08:55:52,211398,14911
2024-12-19 08:55:52,210547,15004
2024-12-19 08:55:52,209563,14989
2024-12-19 08:55:52,209086,14985
2024-12-19 08:55:52,209010,15041
2024-12-19 08:55:52,209806,15071
2024-12-19 08:55:52,211038,15118
2024-12-19 08:55:52,211798,15083
2024-12-19 08:55:52,212264,15128
2024-12-19 08:55:52,211844,15113
2024-12-19 08:55:52,210847,15131
2024-12-19 08:55:52,210035,15162
2024-12-19 08:55:52,209613,15241
2024-12-19 08:55:52,210045,15301
2024-12-19 08:55:52,211306,15258
2024-12-19 08:55:52,212039,15183
2024-12-19 08:55:52,212454,15164
2024-12-19 08:55:52,211943,15118
2024-12-19 08:55:52,211261,15216
2024-12-19 08:55:52,210421,15229
2024-12-19 08:55:52,209626,15201
2024-12-19 08:55:52,209975,15286
2024-12-19 08:55:52,210913,15256
2024-12-19 08:55:52,211571,15217
2024-12-19 08:55:52,212401,15271
2024-12-19 08:55:52,212854,15321
2024-12-19 08:55:52,212469,15310
2024-12-19 08:55:52,211728,15371
2024-12-19 08:55:52,210743,15438
2024-12-19 08:55:52,210291,15476
2024-12-19 08:55:52,210642,15531
2024-12-19 08:55:52,211731,15433
2024-12-19 08:55:52,212764,15477
2024-12-19 08:55:52,213260,15466
2024-12-19 08:55:52,213045,15512
2024-12-19 08:55:52,212345,15558
2024-12-19 08:55:52,211638,15650
2024-12-19 08:55:52,210963,15734
2024-12-19 08:55:52,211058,15758
2024-12-19 08:55:52,212068,15813
2024-12-19 08:55:52,213386,15693
2024-12-19 08:55:52,214080,15638
2024-12-19 08:55:52,214236,15668
2024-12-19 08:55:52,214044,15697
2024-12-19 08:55:52,213032,15706
2024-12-19 08:55:52,212328,15792
2024-12-19 08:55:52,211608,15852
2024-12-19 08:55:52,212013,15903
2024-12-19 08:55:52,213181,15935
2024-12-19 08:55:52,214400,15908
2024-12-19 08:55:52,215118,15882
2024-12-19 08:55:52,215049,15939
2024-12-19 08:55:52,214579,15952
2024-12-19 08:55:52,213968,16018
2024-12-19 08:55:52,213149,16109
2024-12-19 08:55:52,213318,16134
2024-12-19 08:55:52,214030,16143
2024-12-19 08:55:52,215331,16111
2024-12-19 08:55:52,216254,16101
2024-12-19 08:55:52,216377,16076
2024-12-19 08:55:52,215774,16098
2024-12-19 08:55:52,214827,16103
2024-12-19 08:55:52,213821,16058
2024-12-19 08:55:52,213591,16133
2024-12-19 08:55:52,213797,16216
2024-12-19 08:55:52,214921,16186
2024-12-19 08:55:52,216260,16168
2024-12-19 08:55:52,216822,16184
2024-12-19 08:55:52,216809,16133
2024-12-19 08:55:52,215908,16132
2024-12-19 08:55:52,214825,16158
2024-12-19 08:55:52,214041,16208
2024-12-19 08:55:52,213941,16224
2024-12-19 08:55:52,214628,16266
2024-12-19 08:55:52,215790,16235
2024-12-19 08:55:52,216521,16195
2024-12-19 08:55:52,216580,16174
2024-12-19 08:55:52,215908,16117
2024-12-19 08:55:52,214463,16114
2024-12-19 08:55:52,213229,16054
2024-12-19 08:55:52,212684,16028
2024-12-19 08:55:52,212953,15854
2024-12-19 08:55:52,214028,15793
2024-12-19 08:55:52,214601,15769
2024-12-19 08:55:52,215156,15689
2024-12-19 08:55:52,214836,15684
2024-12-19 08:55:52,213892,15632
2024-12-19 08:55:52,212547,15561
2024-12-19 08:55:52,211477,15594
2024-12-19 08:55:52,211068,15556
2024-12-19 08:55:52,211339,15501
2024-12-19 08:55:52,212205,15449
2024-12-19 08:55:52,212858,15316
2024-12-19 08:55:52,212811,15220
2024-12-19 08:55:52,212249,15227
2024-12-19 08:55:52,211280,15234
2024-12-19 08:55:52,210109,15184
2024-12-19 08:55:52,209359,15148
2024-12-19 08:55:52,209542,15136
2024-12-19 08:55:52,210503,15103
2024-12-19 08:55:52,211551,15048
2024-12-19 08:55:52,211913,15000
2024-12-19 08:55:52,211515,15014
2024-12-19 08:55:52,211131,14999
2024-12-19 08:55:52,210171,14976
2024-12-19 08:55:52,209123,15041
2024-12-19 08:55:52,208760,15051
2024-12-19 08:55:52,208963,14964
2024-12-19 08:55:52,210165,14924
2024-12-19 08:55:52,211041,14918
2024-12-19 08:55:52,211302,14884
2024-12-19 08:55:52,210999,14889
2024-12-19 08:55:52,210210,14922
2024-12-19 08:55:52,209205,14944
2024-12-19 08:55:52,208583,14963
2024-12-19 08:55:52,208697,15009
2024-12-19 08:55:52,209764,15000
2024-12-19 08:55:52,210968,15004
2024-12-19 08:55:52,211411,14893
2024-12-19 08:55:52,210938,14874
2024-12-19 08:55:52,210184,14891
2024-12-19 08:55:52,209454,14913
2024-12-19 08:55:52,208475,14959
2024-12-19 08:55:52,208331,14921
2024-12-19 08:55:52,208748,15003
2024-12-19 08:55:52,209953,14964
2024-12-19 08:55:52,210972,14936
2024-12-19 08:55:52,211443,14898
2024-12-19 08:55:52,211383,14918
2024-12-19 08:55:52,210513,14926
2024-12-19 08:55:52,209475,14972
2024-12-19 08:55:52,208406,14966
2024-12-19 08:55:52,208614,15013
2024-12-19 08:55:52,209385,14946
2024-12-19 08:55:52,210564,14804
2024-12-19 08:55:52,211326,14834
2024-12-19 08:55:52,211191,14879
2024-12-19 08:55:52,210739,14854
2024-12-19 08:55:52,209794,14926
2024-12-19 08:55:52,208840,14938
2024-12-19 08:55:52,208644,14966
2024-12-19 08:55:52,209290,14969
2024-12-19 08:55:52,210501,14980
2024-12-19 08:55:52,210941,14954
2024-12-19 08:55:52,211788,14966
2024-12-19 08:55:52,211273,14849
2024-12-19 08:55:52,210431,14807
2024-12-19 08:55:52,209649,14864
2024-12-19 08:55:52,208746,14907
2024-12-19 08:55:52,208846,14979
2024-12-19 08:55:52,209522,14999
2024-12-19 08:55:52,210716,14914
2024-12-19 08:55:52,211316,14879
2024-12-19 08:55:52,211254,14889
2024-12-19 08:55:52,210853,14873
2024-12-19 08:55:52,209714,14932
2024-12-19 08:55:52,208736,14952
2024-12-19 08:55:52,208438,14978
2024-12-19 08:55:52,208939,15021
2024-12-19 08:55:52,210258,14941
2024-12-19 08:55:52,211267,14919
2024-12-19 08:55:52,211471,14854
2024-12-19 08:55:52,211224,14816
2024-12-19 08:55:52,210827,14834
2024-12-19 08:55:52,209883,14840
2024-12-19 08:55:52,208755,14848
2024-12-19 08:55:52,208544,14903
2024-12-19 08:55:52,209189,14924
2024-12-19 08:55:52,210601,14914
2024-12-19 08:55:52,211354,14891
2024-12-19 08:55:52,211588,14891
2024-12-19 08:55:52,211139,14853
2024-12-19 08:55:52,210304,14911
2024-12-19 08:55:52,209323,14881
2024-12-19 08:55:52,208774,14873
2024-12-19 08:55:52,209115,14911
2024-12-19 08:55:52,210046,14796
2024-12-19 08:55:52,211040,14748
2024-12-19 08:55:52,211593,14694
2024-12-19 08:55:52,211368,14693
2024-12-19 08:55:52,210528,14691
2024-12-19 08:55:52,209481,14745
2024-12-19 08:55:52,208762,14809
2024-12-19 08:55:52,208738,14814
2024-12-19 08:55:52,209160,14843
2024-12-19 08:55:52,210406,14747
2024-12-19 08:55:52,211234,14758
2024-12-19 08:55:52,211531,14759
2024-12-19 08:55:52,211079,14747
2024-12-19 08:55:52,210290,14774
2024-12-19 08:55:52,209312,14833
2024-12-19 08:55:52,208681,14879
2024-12-19 08:55:52,208909,14872
2024-12-19 08:55:52,209953,14863
2024-12-19 08:55:52,210839,14754
2024-12-19 08:55:52,211281,14728
2024-12-19 08:55:52,211112,14728
2024-12-19 08:55:52,210354,14743
2024-12-19 08:55:52,209285,14714
2024-12-19 08:55:52,208341,14786
2024-12-19 08:55:52,208491,14740
2024-12-19 08:55:52,209308,14781
2024-12-19 08:55:52,210431,14735
2024-12-19 08:55:52,210815,14724
2024-12-19 08:55:52,211265,14711
2024-12-19 08:55:52,211091,14761
2024-12-19 08:55:52,210183,14725
2024-12-19 08:55:52,209190,14725
2024-12-19 08:55:52,208389,14694
2024-12-19 08:55:52,208481,14727
2024-12-19 08:55:52,209514,14820
2024-12-19 08:55:52,210636,14741
2024-12-19 08:55:52,211293,14738
2024-12-19 08:55:52,211144,14794
2024-12-19 08:55:52,210543,14756
2024-12-19 08:55:52,209550,14770
2024-12-19 08:55:52,208654,14794
2024-12-19 08:55:52,208550,14789
2024-12-19 08:55:52,209266,14760
2024-12-19 08:55:52,210493,14756
2024-12-19 08:55:52,211326,14745
2024-12-19 08:55:52,211109,14692
2024-12-19 08:55:52,210313,14731
2024-12-19 08:55:52,209299,14720
2024-12-19 08:55:52,208381,14726
2024-12-19 08:55:52,208476,14770
2024-12-19 08:55:52,209464,14731
2024-12-19 08:55:52,210641,14701
2024-12-19 08:55:52,211265,14703
2024-12-19 08:55:52,211201,14654
2024-12-19 08:55:52,210536,14683
2024-12-19 08:55:52,209501,14691
2024-12-19 08:55:52,208538,14719
2024-12-19 08:55:52,208195,14655
2024-12-19 08:55:52,208899,14706
2024-12-19 08:55:52,210283,14678
2024-12-19 08:55:52,211179,14626
2024-12-19 08:55:52,211290,14649
2024-12-19 08:55:52,210796,14620
2024-12-19 08:55:52,210085,14731
2024-12-19 08:55:52,209138,14742
2024-12-19 08:55:52,208531,14748
2024-12-19 08:55:52,208664,14726
2024-12-19 08:55:52,209598,14769
2024-12-19 08:55:52,210679,14664
2024-12-19 08:55:52,211213,14572
2024-12-19 08:55:52,210971,14524
2024-12-19 08:55:52,210564,14588
2024-12-19 08:55:52,209648,14698
2024-12-19 08:55:52,208805,14737
2024-12-19 08:55:52,208491,14751
2024-12-19 08:55:52,208992,14694
2024-12-19 08:55:52,210265,14660
2024-12-19 08:55:52,211266,14666
2024-12-19 08:55:52,211541,14672
2024-12-19 08:55:52,210884,14614
2024-12-19 08:55:52,210057,14617
2024-12-19 08:55:52,209149,14614
2024-12-19 08:55:52,208211,14685
2024-12-19 08:55:52,208331,14721
2024-12-19 08:55:52,209096,14636
2024-12-19 08:55:52,209874,14563
2024-12-19 08:55:52,210265,14570
2024-12-19 08:55:52,210252,14554
2024-12-19 08:55:52,209913,14586
2024-12-19 08:55:52,209043,14533
2024-12-19 08:55:52,208035,14658
2024-12-19 08:55:52,207660,14826
2024-12-19 08:55:52,208038,14831
2024-12-19 08:55:52,209325,14849
2024-12-19 08:55:52,210314,14774
2024-12-19 08:55:52,210729,14712
2024-12-19 08:55:52,210382,14734
2024-12-19 08:55:52,209586,14722
2024-12-19 08:55:52,208949,14841
2024-12-19 08:55:52,208212,14775
2024-12-19 08:55:52,208206,14743
2024-12-19 08:55:52,209311,14668
2024-12-19 08:55:52,210666,14684
2024-12-19 08:55:52,211746,14753
2024-12-19 08:55:52,211936,14726
2024-12-19 08:55:52,211321,14671
2024-12-19 08:55:52,210731,14713
2024-12-19 08:55:52,209571,14626
2024-12-19 08:55:52,209059,14710
2024-12-19 08:55:52,209191,14719
2024-12-19 08:55:52,210283,14689
2024-12-19 08:55:52,211235,14648
2024-12-19 08:55:52,211795,14611
2024-12-19 08:55:52,211357,14554
2024-12-19 08:55:52,210569,14582
2024-12-19 08:55:52,209670,14598
2024-12-19 08:55:52,208591,14573
2024-12-19 08:55:52,208759,14638
2024-12-19 08:55:52,209503,14618
2024-12-19 08:55:52,210656,14566
2024-12-19 08:55:52,211377,14530
2024-12-19 08:55:52,211579,14508
2024-12-19 08:55:52,210973,14474
2024-12-19 08:55:52,209908,14485
2024-12-19 08:55:52,209064,14561
2024-12-19 08:55:52,208764,14554
2024-12-19 08:55:52,208869,14554
2024-12-19 08:55:52,209824,14564
2024-12-19 08:55:52,211052,14561
2024-12-19 08:55:52,211509,14478
2024-12-19 08:55:52,211272,14502
2024-12-19 08:55:52,210671,14470
2024-12-19 08:55:52,209742,14588
2024-12-19 08:55:52,208713,14544
2024-12-19 08:55:52,208631,14552
2024-12-19 08:55:52,209455,14543
2024-12-19 08:55:52,210692,14525
2024-12-19 08:55:52,211442,14448
2024-12-19 08:55:52,211333,14408
2024-12-19 08:55:52,210822,14398
2024-12-19 08:55:52,209958,14431
2024-12-19 08:55:52,208884,14465
2024-12-19 08:55:52,208626,14601
2024-12-19 08:55:52,209044,14619
2024-12-19 08:55:53,210001,14548
2024-12-19 08:55:53,210968,14486
2024-12-19 08:55:53,211350,14462
2024-12-19 08:55:53,211389,14446
2024-12-19 08:55:53,211046,14509
2024-12-19 08:55:53,209928,14541
2024-12-19 08:55:53,208957,14580
2024-12-19 08:55:53,208901,14684
2024-12-19 08:55:53,209754,14802
2024-12-19 08:55:53,211521,14877
2024-12-19 08:55:53,213211,15080
2024-12-19 08:55:53,214184,15289
2024-12-19 08:55:53,214387,15423
2024-12-19 08:55:53,214739,15938
2024-12-19 08:55:53,215596,16490
2024-12-19 08:55:53,215405,16961
2024-12-19 08:55:53,215465,17370
2024-12-19 08:55:53,216856,17689
2024-12-19 08:55:53,216739,17956
2024-12-19 08:55:53,213778,16734
2024-12-19 08:55:53,209678,14871
2024-12-19 08:55:53,207201,14006
2024-12-19 08:55:53,203241,12638
2024-12-19 08:55:53,200561,11726
2024-12-19 08:55:53,197644,10339
2024-12-19 08:55:53,193797,9614
2024-12-19 08:55:53,193317,8868
2024-12-19 08:55:53,195821,8579
2024-12-19 08:55:53,196621,8055
2024-12-19 08:55:53,196129,7709
2024-12-19 08:55:53,196633,7641
2024-12-19 08:55:53,198644,8052
2024-12-19 08:55:53,201194,8491
2024-12-19 08:55:53,203353,8844
2024-12-19 08:55:53,206068,9529
2024-12-19 08:55:53,208779,10304
2024-12-19 08:55:53,210296,11040
2024-12-19 08:55:53,210498,11729
2024-12-19 08:55:53,210069,12398
2024-12-19 08:55:53,209596,12958
2024-12-19 08:55:53,209383,13556
2024-12-19 08:55:53,209351,13791
2024-12-19 08:55:53,209381,13938
2024-12-19 08:55:53,210274,14206
2024-12-19 08:55:53,211267,14378
2024-12-19 08:55:53,211786,14528
2024-12-19 08:55:53,211674,14662
2024-12-19 08:55:53,211076,14768
2024-12-19 08:55:53,210139,14780
2024-12-19 08:55:53,209250,14831
2024-12-19 08:55:53,209336,14924
2024-12-19 08:55:53,210371,14920
2024-12-19 08:55:53,211558,14881
2024-12-19 08:55:53,212388,14909
2024-12-19 08:55:53,212238,15011
2024-12-19 08:55:53,211786,15058
2024-12-19 08:55:53,210683,15086
2024-12-19 08:55:53,209693,15103
2024-12-19 08:55:53,209539,15132
2024-12-19 08:55:53,209984,15120
2024-12-19 08:55:53,211538,15160
2024-12-19 08:55:53,212055,15158
2024-12-19 08:55:53,212468,15126
2024-12-19 08:55:53,212227,15174
2024-12-19 08:55:53,211741,15260
2024-12-19 08:55:53,210848,15373
2024-12-19 08:55:53,209949,15388
2024-12-19 08:55:53,209920,15445
2024-12-19 08:55:53,210606,15450
2024-12-19 08:55:53,211792,15363
2024-12-19 08:55:53,212597,15299
2024-12-19 08:55:53,212616,15300
2024-12-19 08:55:53,212229,15353
2024-12-19 08:55:53,211157,15331
2024-12-19 08:55:53,210262,15413
2024-12-19 08:55:53,210024,15451
2024-12-19 08:55:53,210390,15435
2024-12-19 08:55:53,211766,15443
2024-12-19 08:55:53,212833,15519
2024-12-19 08:55:53,212945,15465
2024-12-19 08:55:53,212603,15519
2024-12-19 08:55:53,212229,15548
2024-12-19 08:55:53,211418,15627
2024-12-19 08:55:53,210528,15586
2024-12-19 08:55:53,210393,15621
2024-12-19 08:55:53,211060,15693
2024-12-19 08:55:53,212363,15726
2024-12-19 08:55:53,213276,15693
2024-12-19 08:55:53,213316,15641
2024-12-19 08:55:53,212944,15729
2024-12-19 08:55:53,211960,15751
2024-12-19 08:55:53,211151,15849
2024-12-19 08:55:53,210809,15909
2024-12-19 08:55:53,211166,15899
2024-12-19 08:55:53,212355,15876
2024-12-19 08:55:53,213393,15858
2024-12-19 08:55:53,213668,15811
2024-12-19 08:55:53,213669,15896
2024-12-19 08:55:53,213218,15977
2024-12-19 08:55:53,212359,16084
2024-12-19 08:55:53,211429,16105
2024-12-19 08:55:53,211433,16124
2024-12-19 08:55:53,212098,16168
2024-12-19 08:55:53,213276,16067
2024-12-19 08:55:53,214300,16069
2024-12-19 08:55:53,214763,16042
2024-12-19 08:55:53,214359,16121
2024-12-19 08:55:53,213602,16161
2024-12-19 08:55:53,212898,16313
2024-12-19 08:55:53,212279,16330
2024-12-19 08:55:53,212653,16381
2024-12-19 08:55:53,214059,16276
2024-12-19 08:55:53,215217,16310
2024-12-19 08:55:53,215871,16318
2024-12-19 08:55:53,215663,16299
2024-12-19 08:55:53,215036,16314
2024-12-19 08:55:53,213876,16296
2024-12-19 08:55:53,213205,16366
2024-12-19 08:55:53,213533,16434
2024-12-19 08:55:53,214359,16408
2024-12-19 08:55:53,215523,16361
2024-12-19 08:55:53,215948,16313
2024-12-19 08:55:53,216266,16249
2024-12-19 08:55:53,215986,16263
2024-12-19 08:55:53,215107,16285
2024-12-19 08:55:53,214295,16336
2024-12-19 08:55:53,213614,16399
2024-12-19 08:55:53,214024,16379
2024-12-19 08:55:53,215120,16390
2024-12-19 08:55:53,216012,16306
2024-12-19 08:55:53,216264,16171
2024-12-19 08:55:53,215966,16165
2024-12-19 08:55:53,215309,16167
2024-12-19 08:55:53,214373,16238
2024-12-19 08:55:53,213394,16209
2024-12-19 08:55:53,213224,16168
2024-12-19 08:55:53,213608,16120
2024-12-19 08:55:53,214687,16084
2024-12-19 08:55:53,215476,16085
2024-12-19 08:55:53,215092,15902
2024-12-19 08:55:53,214473,15843
2024-12-19 08:55:53,213960,15854
2024-12-19 08:55:53,212870,15821
2024-12-19 08:55:53,211853,15798
2024-12-19 08:55:53,211832,15790
2024-12-19 08:55:53,212501,15728
2024-12-19 08:55:53,213233,15541
2024-12-19 08:55:53,213658,15512
2024-12-19 08:55:53,213212,15443
2024-12-19 08:55:53,212413,15439
2024-12-19 08:55:53,211329,15384
2024-12-19 08:55:53,210345,15369
2024-12-19 08:55:53,210026,15343
2024-12-19 08:55:53,210412,15316
2024-12-19 08:55:53,211566,15226
2024-12-19 08:55:53,212333,15244
2024-12-19 08:55:53,212289,15127
2024-12-19 08:55:53,211855,15143
2024-12-19 08:55:53,210892,15129
2024-12-19 08:55:53,209696,15083
2024-12-19 08:55:53,208909,15038
2024-12-19 08:55:53,208988,15063
2024-12-19 08:55:53,209605,15055
2024-12-19 08:55:53,210816,14986
2024-12-19 08:55:53,211451,14942
2024-12-19 08:55:53,211459,14982
2024-12-19 08:55:53,210929,14945
2024-12-19 08:55:53,210039,14991
2024-12-19 08:55:53,209058,15010
2024-12-19 08:55:53,208584,15048
2024-12-19 08:55:53,209123,15019
2024-12-19 08:55:53,210445,15046
2024-12-19 08:55:53,211349,15065
2024-12-19 08:55:53,211601,15029
2024-12-19 08:55:53,211061,14967
2024-12-19 08:55:53,210104,14921
2024-12-19 08:55:53,209227,14988
2024-12-19 08:55:53,208389,15038
2024-12-19 08:55:53,208868,15076
2024-12-19 08:55:53,209804,15014
2024-12-19 08:55:53,210791,14944
2024-12-19 08:55:53,211140,14933
2024-12-19 08:55:53,211289,15004
2024-12-19 08:55:53,210993,14982
2024-12-19 08:55:53,209858,14964
2024-12-19 08:55:53,208950,14990
2024-12-19 08:55:53,208587,15093
2024-12-19 08:55:53,208876,15121
2024-12-19 08:55:53,209989,15143
2024-12-19 08:55:53,210787,15149
2024-12-19 08:55:53,211403,15216
2024-12-19 08:55:53,211243,15377
2024-12-19 08:55:53,210500,15516
2024-12-19 08:55:53,209419,15710
2024-12-19 08:55:53,208756,15898
2024-12-19 08:55:53,208991,16211
2024-12-19 08:55:53,209929,16384
2024-12-19 08:55:53,210939,16538
2024-12-19 08:55:53,211666,16624
2024-12-19 08:55:53,211377,16674
2024-12-19 08:55:53,210689,16585
2024-12-19 08:55:53,210211,16584
2024-12-19 08:55:53,209388,16574
2024-12-19 08:55:53,208701,16536
2024-12-19 08:55:53,208984,16436
2024-12-19 08:55:53,209854,16356
2024-12-19 08:55:53,210774,16254
2024-12-19 08:55:53,211188,16173
2024-12-19 08:55:53,211036,16103
2024-12-19 08:55:53,210217,16123
2024-12-19 08:55:53,209406,16126
2024-12-19 08:55:53,208766,16178
2024-12-19 08:55:53,208793,16140
2024-12-19 08:55:53,209565,16181
2024-12-19 08:55:53,210509,16115
2024-12-19 08:55:53,211331,16212
2024-12-19 08:55:53,211149,16190
2024-12-19 08:55:53,210631,16229
2024-12-19 08:55:53,209740,16238
2024-12-19 08:55:53,208860,16269
2024-12-19 08:55:53,208445,16266
2024-12-19 08:55:53,208779,16254
2024-12-19 08:55:53,209899,16388
2024-12-19 08:55:53,210801,16298
2024-12-19 08:55:53,211542,16242
2024-12-19 08:55:53,211428,16234
2024-12-19 08:55:53,210620,16183
2024-12-19 08:55:53,209738,16217
2024-12-19 08:55:53,208711,16226
2024-12-19 08:55:53,208684,16246
2024-12-19 08:55:53,209286,16218
2024-12-19 08:55:53,210463,16182
2024-12-19 08:55:53,211201,16144
2024-12-19 08:55:53,211157,16199
2024-12-19 08:55:53,211121,16155
2024-12-19 08:55:53,210086,16201
2024-12-19 08:55:53,209193,16202
2024-12-19 08:55:53,208774,16161
2024-12-19 08:55:53,209344,16161
2024-12-19 08:55:53,210396,16121
2024-12-19 08:55:53,211162,16065
2024-12-19 08:55:53,211368,16022
2024-12-19 08:55:53,211228,16062
2024-12-19 08:55:53,210730,16089
2024-12-19 08:55:53,209639,16081
2024-12-19 08:55:53,208918,16119
2024-12-19 08:55:53,208489,16133
2024-12-19 08:55:53,208950,16130
2024-12-19 08:55:53,209993,16054
2024-12-19 08:55:53,210913,16040
2024-12-19 08:55:53,211201,16010
2024-12-19 08:55:53,210882,16038
2024-12-19 08:55:53,209869,15984
2024-12-19 08:55:53,209043,16029
2024-12-19 08:55:53,208699,16066
2024-12-19 08:55:53,209088,16084
2024-12-19 08:55:53,210004,16044
2024-12-19 08:55:53,210823,16006
2024-12-19 08:55:53,211070,15938
2024-12-19 08:55:53,210999,15960
2024-12-19 08:55:53,210064,15952
2024-12-19 08:55:53,209563,15910
2024-12-19 08:55:53,208701,15951
2024-12-19 08:55:53,208284,15929
2024-12-19 08:55:53,208859,15903
2024-12-19 08:55:53,210018,15863
2024-12-19 08:55:53,210839,15835
2024-12-19 08:55:53,211022,15842
2024-12-19 08:55:53,210934,15835
2024-12-19 08:55:53,209893,15725
2024-12-19 08:55:53,209076,15833
2024-12-19 08:55:53,208283,15844
2024-12-19 08:55:53,208469,15898
2024-12-19 08:55:53,209379,15903
2024-12-19 08:55:53,210556,15932
2024-12-19 08:55:53,210929,15990
2024-12-19 08:55:53,210882,15946
2024-12-19 08:55:53,209991,15936
2024-12-19 08:55:53,209336,16019
2024-12-19 08:55:53,208350,16067
2024-12-19 08:55:53,208375,16064
2024-12-19 08:55:53,208731,16051
2024-12-19 08:55:53,209843,16063
2024-12-19 08:55:53,210687,15931
2024-12-19 08:55:53,210983,15911
2024-12-19 08:55:53,210561,15903
2024-12-19 08:55:53,209829,15856
2024-12-19 08:55:53,208948,15959
2024-12-19 08:55:53,208301,15923
2024-12-19 08:55:53,208483,15948
2024-12-19 08:55:53,209337,15892
2024-12-19 08:55:53,210194,15831
2024-12-19 08:55:53,210879,15780
2024-12-19 08:55:53,210743,15821
2024-12-19 08:55:53,210183,15834
2024-12-19 08:55:53,209274,15932
2024-12-19 08:55:53,208312,16028
2024-12-19 08:55:53,208204,16038
2024-12-19 08:55:53,208793,15969
2024-12-19 08:55:53,210054,15972
2024-12-19 08:55:53,210686,15898
2024-12-19 08:55:53,210803,15888
2024-12-19 08:55:53,210481,15894
2024-12-19 08:55:53,209953,15896
2024-12-19 08:55:53,208988,15912
2024-12-19 08:55:53,208318,16001
2024-12-19 08:55:53,208482,15998
2024-12-19 08:55:53,209250,15942
2024-12-19 08:55:53,210261,15850
2024-12-19 08:55:53,210867,15809
2024-12-19 08:55:53,210872,15844
2024-12-19 08:55:53,210218,15873
2024-12-19 08:55:53,209028,15852
2024-12-19 08:55:53,208139,15904
2024-12-19 08:55:53,207808,15949
2024-12-19 08:55:53,208003,15853
2024-12-19 08:55:53,208998,15746
2024-12-19 08:55:53,209796,15701
2024-12-19 08:55:53,209656,15691
2024-12-19 08:55:53,209389,15716
2024-12-19 08:55:53,208874,15838
2024-12-19 08:55:53,208474,15839
2024-12-19 08:55:53,207578,15921
2024-12-19 08:55:53,207696,15928
2024-12-19 08:55:53,208432,16028
2024-12-19 08:55:53,209630,15980
2024-12-19 08:55:53,210206,15946
2024-12-19 08:55:53,210324,15924
2024-12-19 08:55:53,210174,15951
2024-12-19 08:55:53,209188,15873
2024-12-19 08:55:53,208236,15777
2024-12-19 08:55:53,208076,15761
2024-12-19 08:55:53,208522,15783
2024-12-19 08:55:53,210226,15892
2024-12-19 08:55:53,211159,15894
2024-12-19 08:55:53,211436,15886
2024-12-19 08:55:53,211031,15748
2024-12-19 08:55:53,210122,15773
2024-12-19 08:55:53,209463,15830
2024-12-19 08:55:53,208968,15929
2024-12-19 08:55:53,209074,15924
2024-12-19 08:55:53,209434,15921
2024-12-19 08:55:53,210424,15799
2024-12-19 08:55:53,210942,15725
2024-12-19 08:55:53,210940,15648
2024-12-19 08:55:53,210566,15612
2024-12-19 08:55:53,209888,15633
2024-12-19 08:55:53,208913,15629
2024-12-19 08:55:53,208209,15643
2024-12-19 08:55:53,208468,15696
2024-12-19 08:55:53,209597,15708
2024-12-19 08:55:53,210196,15607
2024-12-19 08:55:53,210834,15564
2024-12-19 08:55:53,210657,15604
2024-12-19 08:55:53,209833,15618
2024-12-19 08:55:53,208898,15664
2024-12-19 08:55:53,208365,15724
2024-12-19 08:55:53,208622,15791
2024-12-19 08:55:53,209235,15737
2024-12-19 08:55:53,210224,15693
2024-12-19 08:55:53,210883,15724
2024-12-19 08:55:53,210805,15686
2024-12-19 08:55:53,210526,15682
2024-12-19 08:55:53,209786,15689
2024-12-19 08:55:53,208969,15691
2024-12-19 08:55:53,208430,15709
2024-12-19 08:55:53,208679,15682
2024-12-19 08:55:53,209561,15699
2024-12-19 08:55:53,210617,15643
2024-12-19 08:55:53,210931,15533
2024-12-19 08:55:53,210823,15526
2024-12-19 08:55:53,210129,15522
2024-12-19 08:55:53,209303,15535
2024-12-19 08:55:53,208517,15534
2024-12-19 08:55:53,208513,15595
2024-12-19 08:55:53,209129,15528
2024-12-19 08:55:53,210198,15541
2024-12-19 08:55:53,210836,15456
2024-12-19 08:55:53,210779,15423
2024-12-19 08:55:53,210275,15459
2024-12-19 08:55:53,209641,15475
2024-12-19 08:55:53,209326,15526
2024-12-19 08:55:53,208920,15615
2024-12-19 08:55:53,209542,15797
2024-12-19 08:55:53,211009,16068
2024-12-19 08:55:53,212554,16264
2024-12-19 08:55:53,213953,16539
2024-12-19 08:55:53,215143,16961
2024-12-19 08:55:53,215816,17551
2024-12-19 08:55:53,215138,17893
2024-12-19 08:55:53,214388,18248
2024-12-19 08:55:53,214081,18659
2024-12-19 08:55:53,213308,18342
2024-12-19 08:55:53,210666,16848
2024-12-19 08:55:53,207005,14801
2024-12-19 08:55:53,203656,13274
2024-12-19 08:55:53,201379,12196
2024-12-19 08:55:53,198663,10716
2024-12-19 08:55:53,193860,9866
2024-12-19 08:55:53,191515,9068
2024-12-19 08:55:53,193143,8962
2024-12-19 08:55:53,194434,8855
2024-12-19 08:55:53,195258,8369
2024-12-19 08:55:53,196745,8288
2024-12-19 08:55:53,198845,8358
2024-12-19 08:55:53,201554,8938
2024-12-19 08:55:53,203427,9393
2024-12-19 08:55:53,204548,9915
2024-12-19 08:55:53,205688,10669
2024-12-19 08:55:53,207403,11378
2024-12-19 08:55:53,209145,12070
2024-12-19 08:55:53,210014,12634
2024-12-19 08:55:53,210919,13309
2024-12-19 08:55:53,211126,13898
2024-12-19 08:55:53,210444,14327
2024-12-19 08:55:53,209212,14613
2024-12-19 08:55:53,208512,14837
2024-12-19 08:55:53,208819,15061
2024-12-19 08:55:53,209772,15173
2024-12-19 08:55:53,210959,15334
2024-12-19 08:55:53,211516,15263
2024-12-19 08:55:53,211473,15308
2024-12-19 08:55:53,210951,15354
2024-12-19 08:55:53,210216,15393
2024-12-19 08:55:53,209535,15484
2024-12-19 08:55:53,209067,15591
2024-12-19 08:55:53,209492,15579
2024-12-19 08:55:53,210456,15529
2024-12-19 08:55:53,211673,15643
2024-12-19 08:55:53,212074,15648
2024-12-19 08:55:53,211718,15633
2024-12-19 08:55:53,210971,15675
2024-12-19 08:55:53,209736,15588
2024-12-19 08:55:53,209072,15601
2024-12-19 08:55:53,209482,15693
2024-12-19 08:55:53,210496,15753
2024-12-19 08:55:53,211498,15720
2024-12-19 08:55:53,211919,15679
2024-12-19 08:55:53,211774,15696
2024-12-19 08:55:53,211066,15756
2024-12-19 08:55:53,210214,15773
2024-12-19 08:55:53,209825,15809
2024-12-19 08:55:53,209421,15863
2024-12-19 08:55:53,209896,15869
2024-12-19 08:55:53,210722,15802
2024-12-19 08:55:53,211544,15759
2024-12-19 08:55:53,212094,15804
2024-12-19 08:55:53,211882,15790
2024-12-19 08:55:53,211235,15793
2024-12-19 08:55:53,210559,15878
2024-12-19 08:55:53,209914,15933
2024-12-19 08:55:53,209849,15904
2024-12-19 08:55:53,210563,15902
2024-12-19 08:55:53,211891,15920
2024-12-19 08:55:53,212644,15909
2024-12-19 08:55:53,212573,15896
2024-12-19 08:55:53,212171,16001
2024-12-19 08:55:53,211014,15969
2024-12-19 08:55:53,209913,15968
2024-12-19 08:55:53,209686,16034
2024-12-19 08:55:53,210309,16098
2024-12-19 08:55:53,211084,16101
2024-12-19 08:55:53,212146,16118
2024-12-19 08:55:53,212942,16121
2024-12-19 08:55:53,212608,16119
2024-12-19 08:55:53,212008,16131
2024-12-19 08:55:53,211273,16185
2024-12-19 08:55:53,210523,16245
2024-12-19 08:55:53,210629,16330
2024-12-19 08:55:53,211523,16363
2024-12-19 08:55:53,212301,16234
2024-12-19 08:55:53,213236,16254
2024-12-19 08:55:53,213441,16231
2024-12-19 08:55:53,212856,16281
2024-12-19 08:55:53,211974,16265
2024-12-19 08:55:53,211169,16305
2024-12-19 08:55:53,210871,16379
2024-12-19 08:55:53,211647,16462
2024-12-19 08:55:53,213063,16524
2024-12-19 08:55:53,213758,16510
2024-12-19 08:55:53,214128,16525
2024-12-19 08:55:53,214240,16566
2024-12-19 08:55:53,213773,16538
2024-12-19 08:55:53,213056,16619
2024-12-19 08:55:53,212374,16645
2024-12-19 08:55:53,212329,16716
2024-12-19 08:55:53,213094,16768
2024-12-19 08:55:53,214304,16684
2024-12-19 08:55:53,215133,16723
2024-12-19 08:55:53,215217,16740
2024-12-19 08:55:53,214823,16701
2024-12-19 08:55:53,214092,16707
2024-12-19 08:55:53,213293,16663
2024-12-19 08:55:53,212938,16745
2024-12-19 08:55:53,213446,16756
2024-12-19 08:55:53,214611,16696
2024-12-19 08:55:53,215454,16664
2024-12-19 08:55:53,215732,16628
2024-12-19 08:55:53,215468,16681
2024-12-19 08:55:53,214798,16655
2024-12-19 08:55:53,214353,16653
2024-12-19 08:55:53,213250,16634
2024-12-19 08:55:53,213010,16677
2024-12-19 08:55:53,213500,16659
2024-12-19 08:55:53,214546,16586
2024-12-19 08:55:53,215452,16522
2024-12-19 08:55:53,215449,16490
2024-12-19 08:55:53,214949,16526
2024-12-19 08:55:53,214079,16408
2024-12-19 08:55:53,213186,16403
2024-12-19 08:55:53,212504,16401
2024-12-19 08:55:53,212483,16374
2024-12-19 08:55:54,213447,16318
2024-12-19 08:55:54,214109,16226
2024-12-19 08:55:54,214496,16092
2024-12-19 08:55:54,214025,15971
2024-12-19 08:55:54,213078,15908
2024-12-19 08:55:54,212005,15843
2024-12-19 08:55:54,211060,15858
2024-12-19 08:55:54,210708,15787
2024-12-19 08:55:54,210951,15784
2024-12-19 08:55:54,211807,15712
2024-12-19 08:55:54,212510,15581
2024-12-19 08:55:54,212766,15546
2024-12-19 08:55:54,212358,15529
2024-12-19 08:55:54,211242,15397
2024-12-19 08:55:54,210107,15411
2024-12-19 08:55:54,209226,15363
2024-12-19 08:55:54,209431,15396
2024-12-19 08:55:54,210208,15305
2024-12-19 08:55:54,211000,15239
2024-12-19 08:55:54,211452,15126
2024-12-19 08:55:54,211498,15235
2024-12-19 08:55:54,210794,15172
2024-12-19 08:55:54,209915,15194
2024-12-19 08:55:54,209061,15251
2024-12-19 08:55:54,208816,15216
2024-12-19 08:55:54,209369,15141
2024-12-19 08:55:54,210334,15079
2024-12-19 08:55:54,210881,15006
2024-12-19 08:55:54,211003,14967
2024-12-19 08:55:54,210728,14941
2024-12-19 08:55:54,210151,14996
2024-12-19 08:55:54,209314,15103
2024-12-19 08:55:54,208456,15112
2024-12-19 08:55:54,208646,15106
2024-12-19 08:55:54,209210,15067
2024-12-19 08:55:54,210335,15028
2024-12-19 08:55:54,210807,14991
2024-12-19 08:55:54,210944,14979
2024-12-19 08:55:54,210335,14987
2024-12-19 08:55:54,209540,15006
2024-12-19 08:55:54,208611,14973
2024-12-19 08:55:54,208672,15015
2024-12-19 08:55:54,209058,15062
2024-12-19 08:55:54,210189,15027
2024-12-19 08:55:54,211006,15038
2024-12-19 08:55:54,210929,14990
2024-12-19 08:55:54,210451,14943
2024-12-19 08:55:54,209724,15003
2024-12-19 08:55:54,209297,15019
2024-12-19 08:55:54,208584,15068
2024-12-19 08:55:54,208654,15105
2024-12-19 08:55:54,209223,15078
2024-12-19 08:55:54,210320,15035
2024-12-19 08:55:54,211139,14998
2024-12-19 08:55:54,210947,14972
2024-12-19 08:55:54,210404,14991
2024-12-19 08:55:54,209604,15013
2024-12-19 08:55:54,208913,15058
2024-12-19 08:55:54,208611,15041
2024-12-19 08:55:54,209016,15078
2024-12-19 08:55:54,210114,15062
2024-12-19 08:55:54,211082,15036
2024-12-19 08:55:54,211283,14994
2024-12-19 08:55:54,210771,14974
2024-12-19 08:55:54,209778,14938
2024-12-19 08:55:54,208928,14936
2024-12-19 08:55:54,208155,14991
2024-12-19 08:55:54,208243,14960
2024-12-19 08:55:54,208809,15020
2024-12-19 08:55:54,209983,14996
2024-12-19 08:55:54,210739,14898
2024-12-19 08:55:54,211141,14947
2024-12-19 08:55:54,210431,14931
2024-12-19 08:55:54,209521,14971
2024-12-19 08:55:54,208881,14991
2024-12-19 08:55:54,208631,15036
2024-12-19 08:55:54,209128,15031
2024-12-19 08:55:54,210044,14953
2024-12-19 08:55:54,210714,14931
2024-12-19 08:55:54,211008,14935
2024-12-19 08:55:54,210747,14869
2024-12-19 08:55:54,210135,14966
2024-12-19 08:55:54,209243,15006
2024-12-19 08:55:54,208563,15039
2024-12-19 08:55:54,208651,14992
2024-12-19 08:55:54,209473,14994
2024-12-19 08:55:54,210624,14925
2024-12-19 08:55:54,211239,14965
2024-12-19 08:55:54,211228,14964
2024-12-19 08:55:54,210958,14940
2024-12-19 08:55:54,210214,14972
2024-12-19 08:55:54,209229,14985
2024-12-19 08:55:54,208707,14971
2024-12-19 08:55:54,208978,14974
2024-12-19 08:55:54,209801,14953
2024-12-19 08:55:54,210589,14863
2024-12-19 08:55:54,211103,14804
2024-12-19 08:55:54,210856,14838
2024-12-19 08:55:54,210286,14794
2024-12-19 08:55:54,209374,14846
2024-12-19 08:55:54,208475,14919
2024-12-19 08:55:54,208515,14925
2024-12-19 08:55:54,209086,14814
2024-12-19 08:55:54,210216,14824
2024-12-19 08:55:54,210863,14775
2024-12-19 08:55:54,210681,14763
2024-12-19 08:55:54,210313,14734
2024-12-19 08:55:54,209507,14786
2024-12-19 08:55:54,209100,14848
2024-12-19 08:55:54,208311,14864
2024-12-19 08:55:54,208411,14930
2024-12-19 08:55:54,209313,14927
2024-12-19 08:55:54,210339,14831
2024-12-19 08:55:54,210944,14752
2024-12-19 08:55:54,211046,14768
2024-12-19 08:55:54,210484,14868
2024-12-19 08:55:54,209679,14896
2024-12-19 08:55:54,208734,14949
2024-12-19 08:55:54,208625,14918
2024-12-19 08:55:54,208960,14874
2024-12-19 08:55:54,209994,14819
2024-12-19 08:55:54,210899,14766
2024-12-19 08:55:54,210828,14813
2024-12-19 08:55:54,210501,14764
2024-12-19 08:55:54,209693,14771
2024-12-19 08:55:54,208609,14761
2024-12-19 08:55:54,208119,14804
2024-12-19 08:55:54,208487,14780
2024-12-19 08:55:54,208959,14733
2024-12-19 08:55:54,210044,14693
2024-12-19 08:55:54,210739,14648
2024-12-19 08:55:54,210668,14653
2024-12-19 08:55:54,210270,14723
2024-12-19 08:55:54,209347,14681
2024-12-19 08:55:54,208514,14791
2024-12-19 08:55:54,208317,14783
2024-12-19 08:55:54,208993,14784
2024-12-19 08:55:54,210137,14798
2024-12-19 08:55:54,210858,14733
2024-12-19 08:55:54,210948,14687
2024-12-19 08:55:54,210700,14687
2024-12-19 08:55:54,209754,14778
2024-12-19 08:55:54,208891,14769
2024-12-19 08:55:54,208258,14766
2024-12-19 08:55:54,208681,14774
2024-12-19 08:55:54,209316,14771
2024-12-19 08:55:54,210349,14716
2024-12-19 08:55:54,210938,14739
2024-12-19 08:55:54,210825,14708
2024-12-19 08:55:54,210586,14730
2024-12-19 08:55:54,209806,14774
2024-12-19 08:55:54,208816,14743
2024-12-19 08:55:54,208368,14742
2024-12-19 08:55:54,208537,14685
2024-12-19 08:55:54,209678,14688
2024-12-19 08:55:54,210626,14681
2024-12-19 08:55:54,210933,14646
2024-12-19 08:55:54,210538,14650
2024-12-19 08:55:54,209660,14603
2024-12-19 08:55:54,208491,14628
2024-12-19 08:55:54,207939,14689
2024-12-19 08:55:54,207969,14662
2024-12-19 08:55:54,208716,14686
2024-12-19 08:55:54,209813,14688
2024-12-19 08:55:54,210224,14607
2024-12-19 08:55:54,209796,14604
2024-12-19 08:55:54,209124,14646
2024-12-19 08:55:54,208268,14631
2024-12-19 08:55:54,207833,14659
2024-12-19 08:55:54,207596,14763
2024-12-19 08:55:54,207846,14829
2024-12-19 08:55:54,208949,14809
2024-12-19 08:55:54,209866,14808
2024-12-19 08:55:54,210274,14776
2024-12-19 08:55:54,209884,14726
2024-12-19 08:55:54,209079,14740
2024-12-19 08:55:54,208273,14643
2024-12-19 08:55:54,207658,14723
2024-12-19 08:55:54,207654,14654
2024-12-19 08:55:54,208901,14635
2024-12-19 08:55:54,210181,14617
2024-12-19 08:55:54,210928,14685
2024-12-19 08:55:54,211038,14720
2024-12-19 08:55:54,210691,14723
2024-12-19 08:55:54,209806,14673
2024-12-19 08:55:54,208883,14634
2024-12-19 08:55:54,208952,14739
2024-12-19 08:55:54,209491,14778
2024-12-19 08:55:54,209898,14759
2024-12-19 08:55:54,210851,14638
2024-12-19 08:55:54,211570,14693
2024-12-19 08:55:54,211153,14646
2024-12-19 08:55:54,210398,14664
2024-12-19 08:55:54,209416,14674
2024-12-19 08:55:54,208771,14676
2024-12-19 08:55:54,208701,14636
2024-12-19 08:55:54,209115,14637
2024-12-19 08:55:54,210189,14625
2024-12-19 08:55:54,210912,14649
2024-12-19 08:55:54,210822,14583
2024-12-19 08:55:54,210354,14523
2024-12-19 08:55:54,209637,14566
2024-12-19 08:55:54,208700,14545
2024-12-19 08:55:54,208423,14623
2024-12-19 08:55:54,208923,14651
2024-12-19 08:55:54,210146,14620
2024-12-19 08:55:54,210999,14648
2024-12-19 08:55:54,211281,14604
2024-12-19 08:55:54,210999,14574
2024-12-19 08:55:54,210341,14570
2024-12-19 08:55:54,209553,14561
2024-12-19 08:55:54,208557,14629
2024-12-19 08:55:54,208538,14635
2024-12-19 08:55:54,209113,14616
2024-12-19 08:55:54,210172,14608
2024-12-19 08:55:54,210920,14637
2024-12-19 08:55:54,211121,14591
2024-12-19 08:55:54,210752,14561
2024-12-19 08:55:54,209794,14594
2024-12-19 08:55:54,208933,14593
2024-12-19 08:55:54,208514,14641
2024-12-19 08:55:54,208741,14574
2024-12-19 08:55:54,209853,14621
2024-12-19 08:55:54,210779,14609
2024-12-19 08:55:54,211080,14534
2024-12-19 08:55:54,210858,14480
2024-12-19 08:55:54,210024,14519
2024-12-19 08:55:54,209087,14578
2024-12-19 08:55:54,208606,14623
2024-12-19 08:55:54,208533,14623
2024-12-19 08:55:54,209137,14678
2024-12-19 08:55:54,210696,14736
2024-12-19 08:55:54,212143,14958
2024-12-19 08:55:54,212962,15228
2024-12-19 08:55:54,213175,15372
2024-12-19 08:55:54,212897,15729
2024-12-19 08:55:54,213569,16298
2024-12-19 08:55:54,213736,16886
2024-12-19 08:55:54,213574,17231
2024-12-19 08:55:54,214856,17436
2024-12-19 08:55:54,215156,17661
2024-12-19 08:55:54,213469,16718
2024-12-19 08:55:54,209549,14952
2024-12-19 08:55:54,204213,12963
2024-12-19 08:55:54,200936,11673
2024-12-19 08:55:54,198987,10314
2024-12-19 08:55:54,196726,8986
2024-12-19 08:55:54,194040,8088
2024-12-19 08:55:54,193853,7743
2024-12-19 08:55:54,195233,7449
2024-12-19 08:55:54,196836,7311
2024-12-19 08:55:54,196141,7029
2024-12-19 08:55:54,197143,7106
2024-12-19 08:55:54,198422,7442
2024-12-19 08:55:54,200797,8069
2024-12-19 08:55:54,203289,8461
2024-12-19 08:55:54,205906,9233
2024-12-19 08:55:54,208308,10023
2024-12-19 08:55:54,209904,10811
2024-12-19 08:55:54,210323,11484
2024-12-19 08:55:54,210005,12123
2024-12-19 08:55:54,209721,12802
2024-12-19 08:55:54,209239,13423
2024-12-19 08:55:54,209038,13744
2024-12-19 08:55:54,209361,13988
2024-12-19 08:55:54,210410,14194
2024-12-19 08:55:54,211029,14368
2024-12-19 08:55:54,211273,14464
2024-12-19 08:55:54,211223,14534
2024-12-19 08:55:54,210665,14699
2024-12-19 08:55:54,209674,14764
2024-12-19 08:55:54,208841,14757
2024-12-19 08:55:54,208971,14816
2024-12-19 08:55:54,209892,14820
2024-12-19 08:55:54,211128,14879
2024-12-19 08:55:54,211991,14905
2024-12-19 08:55:54,211683,14939
2024-12-19 08:55:54,211221,14980
2024-12-19 08:55:54,210368,14976
2024-12-19 08:55:54,209310,14973
2024-12-19 08:55:54,209015,14960
2024-12-19 08:55:54,209588,15008
2024-12-19 08:55:54,210838,14971
2024-12-19 08:55:54,211657,15016
2024-12-19 08:55:54,212039,15048
2024-12-19 08:55:54,211712,15086
2024-12-19 08:55:54,210904,15113
2024-12-19 08:55:54,209976,15134
2024-12-19 08:55:54,209579,15183
2024-12-19 08:55:54,209575,15185
2024-12-19 08:55:54,210229,15209
2024-12-19 08:55:54,211584,15202
2024-12-19 08:55:54,212312,15216
2024-12-19 08:55:54,212288,15211
2024-12-19 08:55:54,211700,15206
2024-12-19 08:55:54,210671,15229
2024-12-19 08:55:54,209964,15287
2024-12-19 08:55:54,209661,15393
2024-12-19 08:55:54,210139,15404
2024-12-19 08:55:54,211298,15373
2024-12-19 08:55:54,212099,15383
2024-12-19 08:55:54,212461,15351
2024-12-19 08:55:54,212314,15354
2024-12-19 08:55:54,211514,15373
2024-12-19 08:55:54,210634,15451
2024-12-19 08:55:54,210099,15499
2024-12-19 08:55:54,210293,15528
2024-12-19 08:55:54,211156,15512
2024-12-19 08:55:54,211726,15501
2024-12-19 08:55:54,212510,15546
2024-12-19 08:55:54,212643,15543
2024-12-19 08:55:54,212448,15606
2024-12-19 08:55:54,211583,15589
2024-12-19 08:55:54,210691,15689
2024-12-19 08:55:54,210442,15698
2024-12-19 08:55:54,210589,15699
2024-12-19 08:55:54,211703,15712
2024-12-19 08:55:54,212768,15676
2024-12-19 08:55:54,213238,15728
2024-12-19 08:55:54,212849,15758
2024-12-19 08:55:54,212306,15831
2024-12-19 08:55:54,211648,15888
2024-12-19 08:55:54,211133,15984
2024-12-19 08:55:54,211316,16063
2024-12-19 08:55:54,212277,16033
2024-12-19 08:55:54,213177,16002
2024-12-19 08:55:54,213778,16013
2024-12-19 08:55:54,213771,16081
2024-12-19 08:55:54,213663,16063
2024-12-19 08:55:54,213112,16131
2024-12-19 08:55:54,212272,16201
2024-12-19 08:55:54,211670,16238
2024-12-19 08:55:54,212375,16333
2024-12-19 08:55:54,213470,16276
2024-12-19 08:55:54,214490,16338
2024-12-19 08:55:54,214936,16305
2024-12-19 08:55:54,214862,16201
2024-12-19 08:55:54,214178,16188
2024-12-19 08:55:54,213444,16272
2024-12-19 08:55:54,212706,16336
2024-12-19 08:55:54,212768,16340
2024-12-19 08:55:54,213606,16338
2024-12-19 08:55:54,214706,16323
2024-12-19 08:55:54,215656,16304
2024-12-19 08:55:54,215671,16369
2024-12-19 08:55:54,215158,16303
2024-12-19 08:55:54,214293,16358
2024-12-19 08:55:54,213398,16416
2024-12-19 08:55:54,213149,16408
2024-12-19 08:55:54,213143,16366
2024-12-19 08:55:54,213984,16358
2024-12-19 08:55:54,214952,16294
2024-12-19 08:55:54,215393,16263
2024-12-19 08:55:54,215275,16200
2024-12-19 08:55:54,214503,16155
2024-12-19 08:55:54,213485,16174
2024-12-19 08:55:54,212583,16161
2024-12-19 08:55:54,212431,16104
2024-12-19 08:55:54,213023,16060
2024-12-19 08:55:54,214173,16029
2024-12-19 08:55:54,214724,15911
2024-12-19 08:55:54,214433,15824
2024-12-19 08:55:54,213917,15690
2024-12-19 08:55:54,212848,15713
2024-12-19 08:55:54,211809,15664
2024-12-19 08:55:54,211175,15630
2024-12-19 08:55:54,211231,15578
2024-12-19 08:55:54,212262,15477
2024-12-19 08:55:54,212648,15440
2024-12-19 08:55:54,213016,15309
2024-12-19 08:55:54,212746,15283
2024-12-19 08:55:54,212085,15193
2024-12-19 08:55:54,210937,15173
2024-12-19 08:55:54,209668,15099
2024-12-19 08:55:54,209327,15051
2024-12-19 08:55:54,209976,15084
2024-12-19 08:55:54,211215,15066
2024-12-19 08:55:54,211874,15025
2024-12-19 08:55:54,211711,14911
2024-12-19 08:55:54,211091,14840
2024-12-19 08:55:54,210083,14819
2024-12-19 08:55:54,209072,14797
2024-12-19 08:55:54,208602,14804
2024-12-19 08:55:54,208972,14824
2024-12-19 08:55:54,209908,14763
2024-12-19 08:55:54,210824,14763
2024-12-19 08:55:54,211078,14698
2024-12-19 08:55:54,210766,14718
2024-12-19 08:55:54,210413,14665
2024-12-19 08:55:54,209458,14741
2024-12-19 08:55:54,208619,14763
2024-12-19 08:55:54,208174,14747
2024-12-19 08:55:54,208646,14741
2024-12-19 08:55:54,209766,14684
2024-12-19 08:55:54,210611,14695
2024-12-19 08:55:54,210868,14653
2024-12-19 08:55:54,210596,14650
2024-12-19 08:55:54,209744,14644
2024-12-19 08:55:54,208809,14697
2024-12-19 08:55:54,208345,14709
2024-12-19 08:55:54,208521,14696
2024-12-19 08:55:54,209529,14754
2024-12-19 08:55:54,210501,14688
2024-12-19 08:55:54,210969,14656
2024-12-19 08:55:54,210683,14561
2024-12-19 08:55:54,210005,14565
2024-12-19 08:55:54,209108,14580
2024-12-19 08:55:54,208216,14621
2024-12-19 08:55:54,208114,14615
2024-12-19 08:55:54,208585,14652
2024-12-19 08:55:54,209679,14715
2024-12-19 08:55:54,210774,14724
2024-12-19 08:55:54,211248,14660
2024-12-19 08:55:54,211052,14696
2024-12-19 08:55:54,210299,14703
2024-12-19 08:55:54,209222,14687
2024-12-19 08:55:54,208444,14691
2024-12-19 08:55:54,208681,14688
2024-12-19 08:55:54,209213,14610
2024-12-19 08:55:54,210176,14597
2024-12-19 08:55:54,210949,14588
2024-12-19 08:55:54,210761,14596
2024-12-19 08:55:54,210200,14618
2024-12-19 08:55:54,209378,14615
2024-12-19 08:55:54,208448,14694
2024-12-19 08:55:54,208256,14684
2024-12-19 08:55:54,208847,14680
2024-12-19 08:55:54,210095,14636
2024-12-19 08:55:54,210407,14613
2024-12-19 08:55:54,210875,14614
2024-12-19 08:55:54,210619,14569
2024-12-19 08:55:54,209959,14571
2024-12-19 08:55:54,209016,14623
2024-12-19 08:55:54,208241,14613
2024-12-19 08:55:54,208312,14711
2024-12-19 08:55:54,209034,14659
2024-12-19 08:55:54,210069,14661
2024-12-19 08:55:54,210879,14611
2024-12-19 08:55:54,210673,14595
2024-12-19 08:55:54,210218,14630
2024-12-19 08:55:54,209359,14628
2024-12-19 08:55:54,208515,14626
2024-12-19 08:55:54,208204,14629
2024-12-19 08:55:54,208539,14562
2024-12-19 08:55:54,209733,14578
2024-12-19 08:55:54,210713,14509
2024-12-19 08:55:54,210797,14560
2024-12-19 08:55:54,210688,14539
2024-12-19 08:55:54,210186,14568
2024-12-19 08:55:54,209363,14608
2024-12-19 08:55:54,208484,14588
2024-12-19 08:55:54,208471,14636
2024-12-19 08:55:54,208924,14615
2024-12-19 08:55:54,210022,14580
2024-12-19 08:55:54,210786,14546
2024-12-19 08:55:54,210993,14500
2024-12-19 08:55:54,210747,14589
2024-12-19 08:55:54,209860,14528
2024-12-19 08:55:54,208724,14506
2024-12-19 08:55:54,208468,14510
2024-12-19 08:55:54,208844,14542
2024-12-19 08:55:54,209811,14513
2024-12-19 08:55:54,210844,14548
2024-12-19 08:55:54,211334,14521
2024-12-19 08:55:54,210872,14522
2024-12-19 08:55:54,209994,14529
2024-12-19 08:55:54,209118,14500
2024-12-19 08:55:54,208607,14474
2024-12-19 08:55:54,208233,14518
2024-12-19 08:55:54,208553,14461
2024-12-19 08:55:54,209569,14363
2024-12-19 08:55:54,210497,14424
2024-12-19 08:55:54,210546,14369
2024-12-19 08:55:54,210116,14319
2024-12-19 08:55:54,209770,14510
2024-12-19 08:55:54,208668,14467
2024-12-19 08:55:54,207915,14496
2024-12-19 08:55:54,208227,14458
2024-12-19 08:55:54,209254,14423
2024-12-19 08:55:54,210243,14383
2024-12-19 08:55:54,210573,14358
2024-12-19 08:55:54,210320,14314
2024-12-19 08:55:54,209774,14393
2024-12-19 08:55:54,208994,14422
2024-12-19 08:55:54,208064,14436
2024-12-19 08:55:54,208068,14436
2024-12-19 08:55:54,208826,14361
2024-12-19 08:55:54,209456,14368
2024-12-19 08:55:54,210259,14332
2024-12-19 08:55:54,210609,14288
2024-12-19 08:55:54,210396,14332
2024-12-19 08:55:54,209689,14358
2024-12-19 08:55:54,208901,14362
2024-12-19 08:55:54,208299,14402
2024-12-19 08:55:54,208371,14399
2024-12-19 08:55:54,209258,14388
2024-12-19 08:55:54,210210,14320
2024-12-19 08:55:54,210769,14343
2024-12-19 08:55:54,210631,14304
2024-12-19 08:55:54,209814,14244
2024-12-19 08:55:54,208899,14251
2024-12-19 08:55:54,208094,14294
2024-12-19 08:55:54,208149,14327
2024-12-19 08:55:54,208911,14285
2024-12-19 08:55:54,210114,14266
2024-12-19 08:55:54,210610,14191
2024-12-19 08:55:54,210544,14203
2024-12-19 08:55:54,210444,14224
2024-12-19 08:55:54,209656,14201
2024-12-19 08:55:54,208809,14243
2024-12-19 08:55:54,208141,14305
2024-12-19 08:55:54,208084,14301
2024-12-19 08:55:54,209151,14282
2024-12-19 08:55:54,210296,14238
2024-12-19 08:55:55,210794,14143
2024-12-19 08:55:55,210617,14166
2024-12-19 08:55:55,210036,14104
2024-12-19 08:55:55,209026,14059
2024-12-19 08:55:55,208088,13969
2024-12-19 08:55:55,208055,13904
2024-12-19 08:55:55,208672,13886
2024-12-19 08:55:55,209643,13815
2024-12-19 08:55:55,210485,13851
2024-12-19 08:55:55,210600,13803
2024-12-19 08:55:55,210238,13942
2024-12-19 08:55:55,209193,13888
2024-12-19 08:55:55,208234,13944
2024-12-19 08:55:55,207869,14006
2024-12-19 08:55:55,207673,13998
2024-12-19 08:55:55,208279,14009
2024-12-19 08:55:55,209378,13925
2024-12-19 08:55:55,209828,13973
2024-12-19 08:55:55,209549,13943
2024-12-19 08:55:55,209011,13918
2024-12-19 08:55:55,208108,13971
2024-12-19 08:55:55,207243,14024
2024-12-19 08:55:55,207104,14106
2024-12-19 08:55:55,207910,14178
2024-12-19 08:55:55,209108,14164
2024-12-19 08:55:55,209909,14176
2024-12-19 08:55:55,210046,14139
2024-12-19 08:55:55,209683,14105
2024-12-19 08:55:55,208855,14066
2024-12-19 08:55:55,208151,14175
2024-12-19 08:55:55,207753,14165
2024-12-19 08:55:55,208014,14089
2024-12-19 08:55:55,209352,14066
2024-12-19 08:55:55,209917,14029
2024-12-19 08:55:55,210798,13999
2024-12-19 08:55:55,211156,14092
2024-12-19 08:55:55,210834,14080
2024-12-19 08:55:55,209820,14039
2024-12-19 08:55:55,208923,14019
2024-12-19 08:55:55,208543,14110
2024-12-19 08:55:55,208768,14078
2024-12-19 08:55:55,209856,14030
2024-12-19 08:55:55,210716,13944
2024-12-19 08:55:55,211036,13967
2024-12-19 08:55:55,210756,13940
2024-12-19 08:55:55,209940,13924
2024-12-19 08:55:55,208882,13975
2024-12-19 08:55:55,208373,14036
2024-12-19 08:55:55,208553,14064
2024-12-19 08:55:55,209659,14109
2024-12-19 08:55:55,210441,14006
2024-12-19 08:55:55,210839,13941
2024-12-19 08:55:55,210541,13885
2024-12-19 08:55:55,210254,13856
2024-12-19 08:55:55,209327,13846
2024-12-19 08:55:55,208468,13857
2024-12-19 08:55:55,208011,13884
2024-12-19 08:55:55,208395,13936
2024-12-19 08:55:55,209361,13909
2024-12-19 08:55:55,210294,13910
2024-12-19 08:55:55,210873,13918
2024-12-19 08:55:55,210638,13889
2024-12-19 08:55:55,209856,13914
2024-12-19 08:55:55,209228,13921
2024-12-19 08:55:55,208394,13911
2024-12-19 08:55:55,208441,13931
2024-12-19 08:55:55,209349,13843
2024-12-19 08:55:55,210449,13814
2024-12-19 08:55:55,211046,13897
2024-12-19 08:55:55,210833,13849
2024-12-19 08:55:55,210290,13834
2024-12-19 08:55:55,209241,13865
2024-12-19 08:55:55,208410,13856
2024-12-19 08:55:55,208203,13888
2024-12-19 08:55:55,208376,13850
2024-12-19 08:55:55,209349,13881
2024-12-19 08:55:55,210311,13791
2024-12-19 08:55:55,210768,13764
2024-12-19 08:55:55,210554,13796
2024-12-19 08:55:55,209847,13819
2024-12-19 08:55:55,208898,13783
2024-12-19 08:55:55,208100,13881
2024-12-19 08:55:55,208303,13960
2024-12-19 08:55:55,209094,13991
2024-12-19 08:55:55,210966,14147
2024-12-19 08:55:55,212431,14438
2024-12-19 08:55:55,213281,14662
2024-12-19 08:55:55,213123,14828
2024-12-19 08:55:55,213151,15355
2024-12-19 08:55:55,214123,15914
2024-12-19 08:55:55,214029,16368
2024-12-19 08:55:55,213917,16623
2024-12-19 08:55:55,215036,16914
2024-12-19 08:55:55,214945,17003
2024-12-19 08:55:55,213890,16403
2024-12-19 08:55:55,209954,14738
2024-12-19 08:55:55,204886,12807
2024-12-19 08:55:55,200986,11326
2024-12-19 08:55:55,198957,10025
2024-12-19 08:55:55,196788,8682
2024-12-19 08:55:55,193663,7807
2024-12-19 08:55:55,193096,7120
2024-12-19 08:55:55,195218,6934
2024-12-19 08:55:55,195958,6647
2024-12-19 08:55:55,195749,6390
2024-12-19 08:55:55,196316,6458
2024-12-19 08:55:55,197909,6945
2024-12-19 08:55:55,200708,7509
2024-12-19 08:55:55,203360,8040
2024-12-19 08:55:55,206156,8840
2024-12-19 08:55:55,208394,9654
2024-12-19 08:55:55,209541,10328
2024-12-19 08:55:55,209488,11005
2024-12-19 08:55:55,209366,11371
2024-12-19 08:55:55,209371,12096
2024-12-19 08:55:55,208888,12707
2024-12-19 08:55:55,208251,12981
2024-12-19 08:55:55,208574,13230
2024-12-19 08:55:55,209680,13409
2024-12-19 08:55:55,210428,13565
2024-12-19 08:55:55,210944,13681
2024-12-19 08:55:55,210887,13881
2024-12-19 08:55:55,210157,13987
2024-12-19 08:55:55,209179,13993
2024-12-19 08:55:55,208655,14026
2024-12-19 08:55:55,208907,14030
2024-12-19 08:55:55,210015,13993
2024-12-19 08:55:55,211021,14046
2024-12-19 08:55:55,211634,14066
2024-12-19 08:55:55,211413,13986
2024-12-19 08:55:55,210610,14053
2024-12-19 08:55:55,209741,14136
2024-12-19 08:55:55,209076,14216
2024-12-19 08:55:55,209005,14258
2024-12-19 08:55:55,209444,14273
2024-12-19 08:55:55,210641,14307
2024-12-19 08:55:55,211523,14264
2024-12-19 08:55:55,211961,14345
2024-12-19 08:55:55,211580,14304
2024-12-19 08:55:55,210797,14336
2024-12-19 08:55:55,209993,14363
2024-12-19 08:55:55,209474,14486
2024-12-19 08:55:55,209575,14462
2024-12-19 08:55:55,210373,14451
2024-12-19 08:55:55,211551,14408
2024-12-19 08:55:55,212009,14368
2024-12-19 08:55:55,211966,14449
2024-12-19 08:55:55,211483,14483
2024-12-19 08:55:55,210616,14522
2024-12-19 08:55:55,209706,14556
2024-12-19 08:55:55,209671,14616
2024-12-19 08:55:55,210273,14556
2024-12-19 08:55:55,211223,14488
2024-12-19 08:55:55,211678,14524
2024-12-19 08:55:55,212333,14526
2024-12-19 08:55:55,212057,14498
2024-12-19 08:55:55,211274,14521
2024-12-19 08:55:55,210636,14614
2024-12-19 08:55:55,209919,14682
2024-12-19 08:55:55,209994,14637
2024-12-19 08:55:55,210858,14626
2024-12-19 08:55:55,211984,14629
2024-12-19 08:55:55,212657,14534
2024-12-19 08:55:55,212678,14565
2024-12-19 08:55:55,212313,14667
2024-12-19 08:55:55,211365,14649
2024-12-19 08:55:55,210528,14678
2024-12-19 08:55:55,210543,14833
2024-12-19 08:55:55,211374,14928
2024-12-19 08:55:55,212710,14975
2024-12-19 08:55:55,213526,14957
2024-12-19 08:55:55,213660,14929
2024-12-19 08:55:55,213238,14973
2024-12-19 08:55:55,212905,14974
2024-12-19 08:55:55,212134,15048
2024-12-19 08:55:55,211341,15155
2024-12-19 08:55:55,211478,15118
2024-12-19 08:55:55,212356,15227
2024-12-19 08:55:55,213504,15174
2024-12-19 08:55:55,214145,15180
2024-12-19 08:55:55,214241,15213
2024-12-19 08:55:55,214159,15333
2024-12-19 08:55:55,213178,15313
2024-12-19 08:55:55,212333,15390
2024-12-19 08:55:55,212046,15401
2024-12-19 08:55:55,212559,15446
2024-12-19 08:55:55,214066,15509
2024-12-19 08:55:55,215121,15529
2024-12-19 08:55:55,215579,15503
2024-12-19 08:55:55,215283,15528
2024-12-19 08:55:55,214589,15626
2024-12-19 08:55:55,213726,15634
2024-12-19 08:55:55,213101,15648
2024-12-19 08:55:55,213424,15706
2024-12-19 08:55:55,214238,15734
2024-12-19 08:55:55,215394,15726
2024-12-19 08:55:55,216230,15684
2024-12-19 08:55:55,216238,15681
2024-12-19 08:55:55,215771,15647
2024-12-19 08:55:55,214821,15665
2024-12-19 08:55:55,214155,15749
2024-12-19 08:55:55,213692,15806
2024-12-19 08:55:55,214034,15818
2024-12-19 08:55:55,215251,15782
2024-12-19 08:55:55,216141,15744
2024-12-19 08:55:55,216321,15651
2024-12-19 08:55:55,216094,15676
2024-12-19 08:55:55,215315,15712
2024-12-19 08:55:55,214151,15623
2024-12-19 08:55:55,213153,15613
2024-12-19 08:55:55,213191,15592
2024-12-19 08:55:55,214136,15504
2024-12-19 08:55:55,214958,15410
2024-12-19 08:55:55,215185,15384
2024-12-19 08:55:55,215391,15288
2024-12-19 08:55:55,214824,15203
2024-12-19 08:55:55,213786,15184
2024-12-19 08:55:55,212719,15184
2024-12-19 08:55:55,211928,15139
2024-12-19 08:55:55,211724,15004
2024-12-19 08:55:55,212534,14977
2024-12-19 08:55:55,213426,14934
2024-12-19 08:55:55,213721,14833
2024-12-19 08:55:55,213463,14862
2024-12-19 08:55:55,212584,14787
2024-12-19 08:55:55,211178,14649
2024-12-19 08:55:55,210256,14633
2024-12-19 08:55:55,210234,14653
2024-12-19 08:55:55,210926,14627
2024-12-19 08:55:55,212015,14562
2024-12-19 08:55:55,212450,14438
2024-12-19 08:55:55,212246,14425
2024-12-19 08:55:55,211723,14397
2024-12-19 08:55:55,211089,14371
2024-12-19 08:55:55,210189,14331
2024-12-19 08:55:55,209573,14448
2024-12-19 08:55:55,209753,14455
2024-12-19 08:55:55,210778,14349
2024-12-19 08:55:55,211603,14349
2024-12-19 08:55:55,212180,14301
2024-12-19 08:55:55,212183,14340
2024-12-19 08:55:55,211682,14327
2024-12-19 08:55:55,210708,14371
2024-12-19 08:55:55,209558,14327
2024-12-19 08:55:55,209327,14260
2024-12-19 08:55:55,209951,14271
2024-12-19 08:55:55,211098,14200
2024-12-19 08:55:55,211991,14258
2024-12-19 08:55:55,212113,14227
2024-12-19 08:55:55,211662,14166
2024-12-19 08:55:55,210634,14167
2024-12-19 08:55:55,209753,14243
2024-12-19 08:55:55,209529,14284
2024-12-19 08:55:55,209562,14282
2024-12-19 08:55:55,210299,14278
2024-12-19 08:55:55,211666,14237
2024-12-19 08:55:55,212370,14187
2024-12-19 08:55:55,212158,14119
2024-12-19 08:55:55,211630,14132
2024-12-19 08:55:55,210947,14231
2024-12-19 08:55:55,209769,14189
2024-12-19 08:55:55,209284,14138
2024-12-19 08:55:55,209728,14210
2024-12-19 08:55:55,211032,14226
2024-12-19 08:55:55,211804,14178
2024-12-19 08:55:55,211778,14077
2024-12-19 08:55:55,211265,14062
2024-12-19 08:55:55,210514,14093
2024-12-19 08:55:55,209569,14094
2024-12-19 08:55:55,209052,14115
2024-12-19 08:55:55,209426,14062
2024-12-19 08:55:55,210404,14025
2024-12-19 08:55:55,211354,13949
2024-12-19 08:55:55,211834,13924
2024-12-19 08:55:55,212068,13948
2024-12-19 08:55:55,211503,13863
2024-12-19 08:55:55,210823,13850
2024-12-19 08:55:55,209881,13884
2024-12-19 08:55:55,209326,13981
2024-12-19 08:55:55,209461,13838
2024-12-19 08:55:55,210702,13840
2024-12-19 08:55:55,211579,13794
2024-12-19 08:55:55,211811,13790
2024-12-19 08:55:55,211392,13776
2024-12-19 08:55:55,210463,13694
2024-12-19 08:55:55,209704,13692
2024-12-19 08:55:55,209029,13747
2024-12-19 08:55:55,209264,13726
2024-12-19 08:55:55,210283,13637
2024-12-19 08:55:55,211340,13551
2024-12-19 08:55:55,211864,13522
2024-12-19 08:55:55,211568,13483
2024-12-19 08:55:55,210813,13458
2024-12-19 08:55:55,210233,13454
2024-12-19 08:55:55,209343,13513
2024-12-19 08:55:55,208816,13514
2024-12-19 08:55:55,208930,13454
2024-12-19 08:55:55,210284,13504
2024-12-19 08:55:55,211188,13393
2024-12-19 08:55:55,211554,13385
2024-12-19 08:55:55,211285,13391
2024-12-19 08:55:55,210539,13363
2024-12-19 08:55:55,209563,13374
2024-12-19 08:55:55,208928,13451
2024-12-19 08:55:55,208942,13435
2024-12-19 08:55:55,209658,13443
2024-12-19 08:55:55,210644,13308
2024-12-19 08:55:55,211223,13269
2024-12-19 08:55:55,211021,13253
2024-12-19 08:55:55,210441,13293
2024-12-19 08:55:55,209578,13353
2024-12-19 08:55:55,208503,13413
2024-12-19 08:55:55,208324,13394
2024-12-19 08:55:55,208606,13432
2024-12-19 08:55:55,209592,13471
2024-12-19 08:55:55,210743,13431
2024-12-19 08:55:55,211339,13366
2024-12-19 08:55:55,210910,13278
2024-12-19 08:55:55,210279,13375
2024-12-19 08:55:55,209224,13408
2024-12-19 08:55:55,207962,13414
2024-12-19 08:55:55,208173,13416
2024-12-19 08:55:55,209152,13418
2024-12-19 08:55:55,210288,13357
2024-12-19 08:55:55,211306,13346
2024-12-19 08:55:55,211170,13345
2024-12-19 08:55:55,210343,13291
2024-12-19 08:55:55,209340,13344
2024-12-19 08:55:55,208433,13396
2024-12-19 08:55:55,208164,13403
2024-12-19 08:55:55,208673,13324
2024-12-19 08:55:55,210083,13298
2024-12-19 08:55:55,211176,13322
2024-12-19 08:55:55,211499,13358
2024-12-19 08:55:55,211316,13299
2024-12-19 08:55:55,210352,13221
2024-12-19 08:55:55,209311,13316
2024-12-19 08:55:55,208349,13315
2024-12-19 08:55:55,208279,13354
2024-12-19 08:55:55,208884,13396
2024-12-19 08:55:55,210371,13285
2024-12-19 08:55:55,211321,13256
2024-12-19 08:55:55,211433,13288
2024-12-19 08:55:55,211219,13351
2024-12-19 08:55:55,210143,13361
2024-12-19 08:55:55,209125,13416
2024-12-19 08:55:55,208693,13467
2024-12-19 08:55:55,208864,13407
2024-12-19 08:55:55,210118,13406
2024-12-19 08:55:55,211152,13337
2024-12-19 08:55:55,211566,13370
2024-12-19 08:55:55,211281,13376
2024-12-19 08:55:55,210502,13418
2024-12-19 08:55:55,209852,13417
2024-12-19 08:55:55,208935,13569
2024-12-19 08:55:55,208714,13663
2024-12-19 08:55:55,209117,13703
2024-12-19 08:55:55,210433,13711
2024-12-19 08:55:55,211688,13859
2024-12-19 08:55:55,211820,13876
2024-12-19 08:55:55,211334,14031
2024-12-19 08:55:55,210327,14246
2024-12-19 08:55:55,209242,14398
2024-12-19 08:55:55,208398,14443
2024-12-19 08:55:55,208696,14533
2024-12-19 08:55:55,210046,14670
2024-12-19 08:55:55,211361,14698
2024-12-19 08:55:55,211937,14698
2024-12-19 08:55:55,211644,14782
2024-12-19 08:55:55,210549,14825
2024-12-19 08:55:55,209495,14879
2024-12-19 08:55:55,208524,14962
2024-12-19 08:55:55,208615,15053
2024-12-19 08:55:55,209014,15105
2024-12-19 08:55:55,210390,15110
2024-12-19 08:55:55,211523,15109
2024-12-19 08:55:55,211756,15083
2024-12-19 08:55:55,211400,15098
2024-12-19 08:55:55,210519,15193
2024-12-19 08:55:55,209261,15159
2024-12-19 08:55:55,208266,15196
2024-12-19 08:55:55,208513,15243
2024-12-19 08:55:55,209597,15173
2024-12-19 08:55:55,210861,15150
2024-12-19 08:55:55,211655,15216
2024-12-19 08:55:55,211374,15104
2024-12-19 08:55:55,210705,15161
2024-12-19 08:55:55,209416,15037
2024-12-19 08:55:55,207806,14914
2024-12-19 08:55:55,207753,14911
2024-12-19 08:55:55,208738,14876
2024-12-19 08:55:55,209990,14801
2024-12-19 08:55:55,210999,14754
2024-12-19 08:55:55,211051,14739
2024-12-19 08:55:55,210869,14784
2024-12-19 08:55:55,210068,14818
2024-12-19 08:55:55,208792,14802
2024-12-19 08:55:55,207462,14813
2024-12-19 08:55:55,207367,14743
2024-12-19 08:55:55,208351,14735
2024-12-19 08:55:55,210003,14735
2024-12-19 08:55:55,210969,14629
2024-12-19 08:55:55,210785,14479
2024-12-19 08:55:55,210348,14453
2024-12-19 08:55:55,209611,14556
2024-12-19 08:55:55,208863,14566
2024-12-19 08:55:55,208733,14554
2024-12-19 08:55:55,209584,14522
2024-12-19 08:55:55,211026,14486
2024-12-19 08:55:55,211781,14340
2024-12-19 08:55:55,211961,14273
2024-12-19 08:55:55,211604,14211
2024-12-19 08:55:55,211040,14231
2024-12-19 08:55:55,209962,14176
2024-12-19 08:55:55,208866,14102
2024-12-19 08:55:55,208812,14148
2024-12-19 08:55:55,209574,13999
2024-12-19 08:55:55,211071,13905
2024-12-19 08:55:55,211953,13795
2024-12-19 08:55:55,211914,13752
2024-12-19 08:55:55,211360,13774
2024-12-19 08:55:55,210021,13723
2024-12-19 08:55:55,208753,13676
2024-12-19 08:55:55,208404,13620
2024-12-19 08:55:55,208955,13518
2024-12-19 08:55:55,210328,13415
2024-12-19 08:55:55,211571,13328
2024-12-19 08:55:55,211955,13192
2024-12-19 08:55:55,211431,13171
2024-12-19 08:55:55,210363,13203
2024-12-19 08:55:55,209193,13204
2024-12-19 08:55:55,208268,13186
2024-12-19 08:55:55,208366,13176
2024-12-19 08:55:55,209289,13231
2024-12-19 08:55:55,210896,13209
2024-12-19 08:55:55,212064,13156
2024-12-19 08:55:55,212384,13156
2024-12-19 08:55:55,211784,13152
2024-12-19 08:55:55,210349,13158
2024-12-19 08:55:55,209044,13166
2024-12-19 08:55:55,208501,13246
2024-12-19 08:55:55,208866,13213
2024-12-19 08:55:55,210362,13245
2024-12-19 08:55:55,211686,13342
2024-12-19 08:55:55,212141,13279
2024-12-19 08:55:55,211788,13226
2024-12-19 08:55:55,210901,13257
2024-12-19 08:55:55,209635,13325
2024-12-19 08:55:55,208739,13408
2024-12-19 08:55:55,209080,13499
2024-12-19 08:55:55,210384,13439
2024-12-19 08:55:55,211791,13459
2024-12-19 08:55:55,212303,13449
2024-12-19 08:55:55,212581,13449
2024-12-19 08:55:55,212405,13599
2024-12-19 08:55:55,211699,13701
2024-12-19 08:55:55,211146,13949
2024-12-19 08:55:55,211187,14314
2024-12-19 08:55:55,212269,14504
2024-12-19 08:55:55,214861,14899
2024-12-19 08:55:55,218046,15408
2024-12-19 08:55:55,220014,15911
2024-12-19 08:55:55,219593,16189
2024-12-19 08:55:55,218721,16608
2024-12-19 08:55:55,216779,17055
2024-12-19 08:55:55,213351,16638
2024-12-19 08:55:55,209444,15090
2024-12-19 08:55:55,206181,13271
2024-12-19 08:55:55,205196,11934
2024-12-19 08:55:55,205120,10883
2024-12-19 08:55:55,203086,9470
2024-12-19 08:55:55,197181,8513
2024-12-19 08:55:55,194700,8036
2024-12-19 08:55:55,192198,7533
2024-12-19 08:55:55,192673,7200
2024-12-19 08:55:55,192489,6786
2024-12-19 08:55:55,194555,6638
2024-12-19 08:55:55,197950,6701
2024-12-19 08:55:55,202447,7178
2024-12-19 08:55:55,204896,7577
2024-12-19 08:55:55,205844,8135
2024-12-19 08:55:55,206218,8964
2024-12-19 08:55:55,205876,9703
2024-12-19 08:55:55,206159,10456
2024-12-19 08:55:55,207468,11116
2024-12-19 08:55:55,209879,11702
2024-12-19 08:55:55,211689,12248
2024-12-19 08:55:55,211914,12618
2024-12-19 08:55:55,210723,12761
2024-12-19 08:55:55,209292,13039
2024-12-19 08:55:55,207748,13266
2024-12-19 08:55:55,207174,13480
2024-12-19 08:55:55,207443,13573
2024-12-19 08:55:55,208798,13663
2024-12-19 08:55:55,210694,13728
2024-12-19 08:55:55,211684,13670
2024-12-19 08:55:55,211631,13677
2024-12-19 08:55:55,211067,13743
2024-12-19 08:55:55,209363,13769
2024-12-19 08:55:55,208108,13853
2024-12-19 08:55:55,207814,13963
2024-12-19 08:55:55,208859,13984
2024-12-19 08:55:55,210564,13998
2024-12-19 08:55:55,212007,13993
2024-12-19 08:55:55,212412,14159
2024-12-19 08:55:55,211750,14184
2024-12-19 08:55:55,210296,14333
2024-12-19 08:55:55,208814,14397
2024-12-19 08:55:55,207941,14609
2024-12-19 08:55:55,208484,14856
2024-12-19 08:55:56,209989,14909
2024-12-19 08:55:56,211609,14896
2024-12-19 08:55:56,212234,14898
2024-12-19 08:55:56,212408,15011
2024-12-19 08:55:56,211524,15008
2024-12-19 08:55:56,210154,15170
2024-12-19 08:55:56,208643,15228
2024-12-19 08:55:56,208195,15290
2024-12-19 08:55:56,208843,15416
2024-12-19 08:55:56,210863,15401
2024-12-19 08:55:56,212423,15485
2024-12-19 08:55:56,212988,15494
2024-12-19 08:55:56,212436,15564
2024-12-19 08:55:56,211257,15698
2024-12-19 08:55:56,209801,15771
2024-12-19 08:55:56,208695,15803
2024-12-19 08:55:56,209004,15939
2024-12-19 08:55:56,210689,16015
2024-12-19 08:55:56,212294,15941
2024-12-19 08:55:56,213392,15973
2024-12-19 08:55:56,213291,16040
2024-12-19 08:55:56,212161,16115
2024-12-19 08:55:56,211414,16150
2024-12-19 08:55:56,210094,16282
2024-12-19 08:55:56,209194,16326
2024-12-19 08:55:56,209637,16314
2024-12-19 08:55:56,211568,16351
2024-12-19 08:55:56,213163,16408
2024-12-19 08:55:56,214109,16532
2024-12-19 08:55:56,213668,16598
2024-12-19 08:55:56,212311,16658
2024-12-19 08:55:56,210904,16740
2024-12-19 08:55:56,209633,16730
2024-12-19 08:55:56,209893,16753
2024-12-19 08:55:56,211414,16692
2024-12-19 08:55:56,213283,16641
2024-12-19 08:55:56,214296,16530
2024-12-19 08:55:56,214383,16568
2024-12-19 08:55:56,213731,16556
2024-12-19 08:55:56,212431,16596
2024-12-19 08:55:56,211072,16589
2024-12-19 08:55:56,210953,16622
2024-12-19 08:55:56,211319,16608
2024-12-19 08:55:56,212980,16552
2024-12-19 08:55:56,214686,16426
2024-12-19 08:55:56,215436,16349
2024-12-19 08:55:56,215200,16376
2024-12-19 08:55:56,214148,16299
2024-12-19 08:55:56,213008,16366
2024-12-19 08:55:56,211793,16409
2024-12-19 08:55:56,211885,16360
2024-12-19 08:55:56,213224,16375
2024-12-19 08:55:56,214914,16261
2024-12-19 08:55:56,216013,16168
2024-12-19 08:55:56,216000,16226
2024-12-19 08:55:56,215213,16200
2024-12-19 08:55:56,213717,16164
2024-12-19 08:55:56,212386,16236
2024-12-19 08:55:56,212045,16239
2024-12-19 08:55:56,212991,16289
2024-12-19 08:55:56,214878,16167
2024-12-19 08:55:56,216233,16088
2024-12-19 08:55:56,216571,16113
2024-12-19 08:55:56,216234,16043
2024-12-19 08:55:56,215114,16041
2024-12-19 08:55:56,213688,16021
2024-12-19 08:55:56,212278,16021
2024-12-19 08:55:56,212102,16023
2024-12-19 08:55:56,212946,15941
2024-12-19 08:55:56,214653,15909
2024-12-19 08:55:56,215852,15856
2024-12-19 08:55:56,215876,15743
2024-12-19 08:55:56,215028,15693
2024-12-19 08:55:56,213333,15677
2024-12-19 08:55:56,211824,15641
2024-12-19 08:55:56,211209,15637
2024-12-19 08:55:56,211662,15611
2024-12-19 08:55:56,213262,15466
2024-12-19 08:55:56,214356,15341
2024-12-19 08:55:56,214552,15259
2024-12-19 08:55:56,213870,15189
2024-12-19 08:55:56,212394,15159
2024-12-19 08:55:56,211488,15101
2024-12-19 08:55:56,209751,15091
2024-12-19 08:55:56,209101,15035
2024-12-19 08:55:56,209814,14976
2024-12-19 08:55:56,211624,14892
2024-12-19 08:55:56,212795,14831
2024-12-19 08:55:56,212843,14721
2024-12-19 08:55:56,212291,14714
2024-12-19 08:55:56,210904,14689
2024-12-19 08:55:56,209454,14634
2024-12-19 08:55:56,208390,14616
2024-12-19 08:55:56,208649,14582
2024-12-19 08:55:56,210184,14490
2024-12-19 08:55:56,211521,14411
2024-12-19 08:55:56,212158,14387
2024-12-19 08:55:56,211852,14343
2024-12-19 08:55:56,210668,14417
2024-12-19 08:55:56,209151,14396
2024-12-19 08:55:56,207846,14463
2024-12-19 08:55:56,207881,14524
2024-12-19 08:55:56,208331,14518
2024-12-19 08:55:56,209986,14462
2024-12-19 08:55:56,211424,14407
2024-12-19 08:55:56,212034,14400
2024-12-19 08:55:56,211411,14371
2024-12-19 08:55:56,210308,14440
2024-12-19 08:55:56,208832,14449
2024-12-19 08:55:56,207721,14501
2024-12-19 08:55:56,207954,14479
2024-12-19 08:55:56,209439,14463
2024-12-19 08:55:56,210966,14364
2024-12-19 08:55:56,211784,14304
2024-12-19 08:55:56,211224,14287
2024-12-19 08:55:56,210051,14332
2024-12-19 08:55:56,208596,14327
2024-12-19 08:55:56,206987,14289
2024-12-19 08:55:56,206836,14285
2024-12-19 08:55:56,208036,14301
2024-12-19 08:55:56,209918,14301
2024-12-19 08:55:56,211232,14272
2024-12-19 08:55:56,211411,14259
2024-12-19 08:55:56,210824,14204
2024-12-19 08:55:56,209633,14244
2024-12-19 08:55:56,208171,14276
2024-12-19 08:55:56,206892,14330
2024-12-19 08:55:56,206858,14270
2024-12-19 08:55:56,208174,14211
2024-12-19 08:55:56,209769,14090
2024-12-19 08:55:56,210859,14067
2024-12-19 08:55:56,210789,14085
2024-12-19 08:55:56,209949,14039
2024-12-19 08:55:56,208337,14048
2024-12-19 08:55:56,206874,14123
2024-12-19 08:55:56,206570,14194
2024-12-19 08:55:56,207483,14148
2024-12-19 08:55:56,209275,14140
2024-12-19 08:55:56,210696,14109
2024-12-19 08:55:56,210664,14167
2024-12-19 08:55:56,209986,14163
2024-12-19 08:55:56,208757,14264
2024-12-19 08:55:56,208031,14322
2024-12-19 08:55:56,206348,14243
2024-12-19 08:55:56,206317,14295
2024-12-19 08:55:56,207641,14282
2024-12-19 08:55:56,209682,14262
2024-12-19 08:55:56,210743,14258
2024-12-19 08:55:56,210592,14275
2024-12-19 08:55:56,209599,14254
2024-12-19 08:55:56,208129,14324
2024-12-19 08:55:56,206526,14356
2024-12-19 08:55:56,206018,14392
2024-12-19 08:55:56,206846,14410
2024-12-19 08:55:56,208769,14385
2024-12-19 08:55:56,210068,14378
2024-12-19 08:55:56,210347,14264
2024-12-19 08:55:56,209856,14334
2024-12-19 08:55:56,208364,14367
2024-12-19 08:55:56,206884,14388
2024-12-19 08:55:56,205649,14363
2024-12-19 08:55:56,205851,14394
2024-12-19 08:55:56,206410,14394
2024-12-19 08:55:56,208283,14389
2024-12-19 08:55:56,209575,14394
2024-12-19 08:55:56,209744,14413
2024-12-19 08:55:56,209096,14401
2024-12-19 08:55:56,207573,14466
2024-12-19 08:55:56,205993,14476
2024-12-19 08:55:56,205159,14532
2024-12-19 08:55:56,205889,14563
2024-12-19 08:55:56,207954,14562
2024-12-19 08:55:56,209480,14533
2024-12-19 08:55:56,209976,14471
2024-12-19 08:55:56,209499,14464
2024-12-19 08:55:56,208231,14448
2024-12-19 08:55:56,206804,14529
2024-12-19 08:55:56,205416,14576
2024-12-19 08:55:56,205564,14498
2024-12-19 08:55:56,207223,14564
2024-12-19 08:55:56,209145,14552
2024-12-19 08:55:56,210143,14542
2024-12-19 08:55:56,210252,14525
2024-12-19 08:55:56,209921,14607
2024-12-19 08:55:56,208600,14601
2024-12-19 08:55:56,207053,14624
2024-12-19 08:55:56,206044,14644
2024-12-19 08:55:56,206549,14603
2024-12-19 08:55:56,208384,14582
2024-12-19 08:55:56,209910,14494
2024-12-19 08:55:56,210659,14523
2024-12-19 08:55:56,210383,14596
2024-12-19 08:55:56,209381,14646
2024-12-19 08:55:56,207918,14785
2024-12-19 08:55:56,206454,14808
2024-12-19 08:55:56,206576,14910
2024-12-19 08:55:56,208023,14855
2024-12-19 08:55:56,209906,14913
2024-12-19 08:55:56,210825,14921
2024-12-19 08:55:56,210650,14964
2024-12-19 08:55:56,209919,15013
2024-12-19 08:55:56,208328,15041
2024-12-19 08:55:56,207649,15079
2024-12-19 08:55:56,206288,15048
2024-12-19 08:55:56,206599,15109
2024-12-19 08:55:56,208318,15161
2024-12-19 08:55:56,209971,15133
2024-12-19 08:55:56,210774,15076
2024-12-19 08:55:56,210421,15118
2024-12-19 08:55:56,209330,15154
2024-12-19 08:55:56,207777,15171
2024-12-19 08:55:56,206266,15174
2024-12-19 08:55:56,206080,15175
2024-12-19 08:55:56,207188,15110
2024-12-19 08:55:56,209004,15104
2024-12-19 08:55:56,210256,14974
2024-12-19 08:55:56,210491,14922
2024-12-19 08:55:56,209629,14884
2024-12-19 08:55:56,208063,14871
2024-12-19 08:55:56,206563,14927
2024-12-19 08:55:56,205909,14842
2024-12-19 08:55:56,206663,14786
2024-12-19 08:55:56,207485,14783
2024-12-19 08:55:56,209162,14714
2024-12-19 08:55:56,210282,14614
2024-12-19 08:55:56,210073,14559
2024-12-19 08:55:56,209196,14569
2024-12-19 08:55:56,207610,14570
2024-12-19 08:55:56,206074,14622
2024-12-19 08:55:56,205699,14654
2024-12-19 08:55:56,206498,14582
2024-12-19 08:55:56,208428,14576
2024-12-19 08:55:56,209597,14511
2024-12-19 08:55:56,209778,14517
2024-12-19 08:55:56,209223,14523
2024-12-19 08:55:56,208006,14608
2024-12-19 08:55:56,206502,14631
2024-12-19 08:55:56,205351,14523
2024-12-19 08:55:56,205737,14513
2024-12-19 08:55:56,207539,14521
2024-12-19 08:55:56,208876,14443
2024-12-19 08:55:56,209243,14395
2024-12-19 08:55:56,209168,14432
2024-12-19 08:55:56,208426,14404
2024-12-19 08:55:56,206906,14392
2024-12-19 08:55:56,205426,14449
2024-12-19 08:55:56,205087,14435
2024-12-19 08:55:56,205773,14490
2024-12-19 08:55:56,207638,14479
2024-12-19 08:55:56,208923,14388
2024-12-19 08:55:56,209532,14409
2024-12-19 08:55:56,209198,14384
2024-12-19 08:55:56,207677,14431
2024-12-19 08:55:56,206260,14320
2024-12-19 08:55:56,205228,14359
2024-12-19 08:55:56,205764,14237
2024-12-19 08:55:56,207296,14037
2024-12-19 08:55:56,208932,13939
2024-12-19 08:55:56,210154,13851
2024-12-19 08:55:56,210236,13858
2024-12-19 08:55:56,209670,13846
2024-12-19 08:55:56,208575,13909
2024-12-19 08:55:56,207809,13911
2024-12-19 08:55:56,206871,13823
2024-12-19 08:55:56,207454,13772
2024-12-19 08:55:56,209251,13738
2024-12-19 08:55:56,210568,13665
2024-12-19 08:55:56,211298,13625
2024-12-19 08:55:56,210929,13615
2024-12-19 08:55:56,209678,13619
2024-12-19 08:55:56,208085,13554
2024-12-19 08:55:56,206838,13588
2024-12-19 08:55:56,207036,13531
2024-12-19 08:55:56,208538,13553
2024-12-19 08:55:56,210079,13471
2024-12-19 08:55:56,211013,13421
2024-12-19 08:55:56,210735,13426
2024-12-19 08:55:56,209572,13379
2024-12-19 08:55:56,208186,13428
2024-12-19 08:55:56,206651,13424
2024-12-19 08:55:56,206466,13423
2024-12-19 08:55:56,207612,13370
2024-12-19 08:55:56,208653,13344
2024-12-19 08:55:56,210031,13322
2024-12-19 08:55:56,210846,13289
2024-12-19 08:55:56,210630,13226
2024-12-19 08:55:56,209606,13298
2024-12-19 08:55:56,208110,13333
2024-12-19 08:55:56,206709,13334
2024-12-19 08:55:56,206672,13322
2024-12-19 08:55:56,207814,13331
2024-12-19 08:55:56,209379,13276
2024-12-19 08:55:56,210419,13290
2024-12-19 08:55:56,210273,13240
2024-12-19 08:55:56,209402,13257
2024-12-19 08:55:56,208035,13318
2024-12-19 08:55:56,206873,13359
2024-12-19 08:55:56,206507,13354
2024-12-19 08:55:56,207506,13430
2024-12-19 08:55:56,209491,13383
2024-12-19 08:55:56,210772,13314
2024-12-19 08:55:56,210847,13290
2024-12-19 08:55:56,210587,13258
2024-12-19 08:55:56,209373,13294
2024-12-19 08:55:56,207742,13246
2024-12-19 08:55:56,206171,13360
2024-12-19 08:55:56,206127,13318
2024-12-19 08:55:56,207189,13371
2024-12-19 08:55:56,209149,13373
2024-12-19 08:55:56,210800,13511
2024-12-19 08:55:56,211537,13587
2024-12-19 08:55:56,211808,13901
2024-12-19 08:55:56,211210,14133
2024-12-19 08:55:56,210636,14578
2024-12-19 08:55:56,211759,15142
2024-12-19 08:55:56,214375,15633
2024-12-19 08:55:56,216494,15908
2024-12-19 08:55:56,218155,16226
2024-12-19 08:55:56,218369,16551
2024-12-19 08:55:56,215911,16526
2024-12-19 08:55:56,210623,15478
2024-12-19 08:55:56,204704,13704
2024-12-19 08:55:56,201753,13032
2024-12-19 08:55:56,199300,12061
2024-12-19 08:55:56,198469,11168
2024-12-19 08:55:56,197555,9953
2024-12-19 08:55:56,193340,8976
2024-12-19 08:55:56,191903,8443
2024-12-19 08:55:56,192619,8188
2024-12-19 08:55:56,189933,7511
2024-12-19 08:55:56,188206,7236
2024-12-19 08:55:56,188463,7213
2024-12-19 08:55:56,192486,7529
2024-12-19 08:55:56,197577,7789
2024-12-19 08:55:56,201591,8151
2024-12-19 08:55:56,204620,8816
2024-12-19 08:55:56,205681,9597
2024-12-19 08:55:56,205377,10218
2024-12-19 08:55:56,204288,10946
2024-12-19 08:55:56,203252,11634
2024-12-19 08:55:56,204195,12259
2024-12-19 08:55:56,206178,12725
2024-12-19 08:55:56,207074,12799
2024-12-19 08:55:56,208055,12911
2024-12-19 08:55:56,208429,13050
2024-12-19 08:55:56,208288,13274
2024-12-19 08:55:56,207272,13534
2024-12-19 08:55:56,206112,13618
2024-12-19 08:55:56,205139,13747
2024-12-19 08:55:56,205552,13764
2024-12-19 08:55:56,207217,13813
2024-12-19 08:55:56,208886,13693
2024-12-19 08:55:56,209944,13818
2024-12-19 08:55:56,209817,13823
2024-12-19 08:55:56,208735,13849
2024-12-19 08:55:56,207367,13989
2024-12-19 08:55:56,206054,14033
2024-12-19 08:55:56,206086,14162
2024-12-19 08:55:56,207359,14100
2024-12-19 08:55:56,209218,14125
2024-12-19 08:55:56,210580,14209
2024-12-19 08:55:56,210813,14208
2024-12-19 08:55:56,210648,14350
2024-12-19 08:55:56,209333,14366
2024-12-19 08:55:56,208083,14468
2024-12-19 08:55:56,206929,14567
2024-12-19 08:55:56,207126,14600
2024-12-19 08:55:56,208644,14685
2024-12-19 08:55:56,210191,14650
2024-12-19 08:55:56,211153,14656
2024-12-19 08:55:56,211110,14768
2024-12-19 08:55:56,210251,14849
2024-12-19 08:55:56,208842,14892
2024-12-19 08:55:56,207359,15026
2024-12-19 08:55:56,207112,15098
2024-12-19 08:55:56,208148,15057
2024-12-19 08:55:56,210230,15047
2024-12-19 08:55:56,211625,15034
2024-12-19 08:55:56,211816,15129
2024-12-19 08:55:56,211267,15191
2024-12-19 08:55:56,209570,15203
2024-12-19 08:55:56,208879,15220
2024-12-19 08:55:56,207679,15306
2024-12-19 08:55:56,208101,15358
2024-12-19 08:55:56,209517,15330
2024-12-19 08:55:56,211451,15318
2024-12-19 08:55:56,212487,15203
2024-12-19 08:55:56,212497,15205
2024-12-19 08:55:56,211866,15301
2024-12-19 08:55:56,210384,15233
2024-12-19 08:55:56,208865,15287
2024-12-19 08:55:56,208453,15275
2024-12-19 08:55:56,209286,15282
2024-12-19 08:55:56,211499,15234
2024-12-19 08:55:56,212841,15186
2024-12-19 08:55:56,213343,15180
2024-12-19 08:55:56,212827,15194
2024-12-19 08:55:56,211807,15323
2024-12-19 08:55:56,210356,15254
2024-12-19 08:55:56,209384,15416
2024-12-19 08:55:56,209864,15333
2024-12-19 08:55:56,210628,15342
2024-12-19 08:55:56,212658,15296
2024-12-19 08:55:56,214034,15257
2024-12-19 08:55:56,214311,15305
2024-12-19 08:55:56,213742,15355
2024-12-19 08:55:56,212162,15298
2024-12-19 08:55:56,210575,15336
2024-12-19 08:55:56,210049,15429
2024-12-19 08:55:56,210924,15413
2024-12-19 08:55:56,212739,15435
2024-12-19 08:55:56,214418,15395
2024-12-19 08:55:56,215050,15412
2024-12-19 08:55:56,214844,15418
2024-12-19 08:55:56,213472,15419
2024-12-19 08:55:56,212198,15444
2024-12-19 08:55:56,210974,15415
2024-12-19 08:55:56,211251,15416
2024-12-19 08:55:56,212864,15384
2024-12-19 08:55:56,214414,15353
2024-12-19 08:55:56,215339,15339
2024-12-19 08:55:56,215276,15367
2024-12-19 08:55:56,214753,15360
2024-12-19 08:55:56,213332,15356
2024-12-19 08:55:56,212085,15328
2024-12-19 08:55:56,211164,15347
