Timestamp,ECG_CH1,ECG_CH2
2024-12-19 08:14:55,261788,-4615
2024-12-19 08:14:56,261309,-4727
2024-12-19 08:14:56,261291,-4735
2024-12-19 08:14:57,261321,-4839
2024-12-19 08:14:57,261243,-4990
2024-12-19 08:14:58,261289,-4999
2024-12-19 08:14:58,261328,-5104
2024-12-19 08:14:58,260948,-5061
2024-12-19 08:14:59,260412,-5090
2024-12-19 08:14:59,260217,-5120
2024-12-19 08:14:59,260343,-5076
2024-12-19 08:14:59,260382,-5128
2024-12-19 08:14:59,260609,-5058
2024-12-19 08:14:59,260875,-5089
2024-12-19 08:14:59,260924,-5171
2024-12-19 08:14:59,260697,-5239
2024-12-19 08:14:59,260321,-5187
2024-12-19 08:14:59,260029,-5226
2024-12-19 08:14:59,260014,-5221
2024-12-19 08:14:59,259996,-5208
2024-12-19 08:14:59,260166,-5256
2024-12-19 08:14:59,260418,-5277
2024-12-19 08:14:59,260694,-5306
2024-12-19 08:14:59,260693,-5279
2024-12-19 08:14:59,260532,-5409
2024-12-19 08:14:59,260156,-5407
2024-12-19 08:14:59,259952,-5457
2024-12-19 08:14:59,259898,-5212
2024-12-19 08:14:59,259870,-5225
2024-12-19 08:14:59,260106,-5347
2024-12-19 08:14:59,260468,-5349
2024-12-19 08:14:59,260714,-5336
2024-12-19 08:14:59,260498,-5416
2024-12-19 08:14:59,260038,-5390
2024-12-19 08:14:59,259988,-5398
2024-12-19 08:14:59,259966,-5431
2024-12-19 08:14:59,260006,-5339
2024-12-19 08:14:59,260134,-5386
2024-12-19 08:14:59,260363,-5435
2024-12-19 08:14:59,260523,-5501
2024-12-19 08:14:59,260736,-5491
2024-12-19 08:14:59,260583,-5389
2024-12-19 08:14:59,260275,-5339
2024-12-19 08:14:59,260224,-5284
2024-12-19 08:14:59,260111,-5401
2024-12-19 08:14:59,260197,-5386
2024-12-19 08:14:59,260359,-5493
2024-12-19 08:14:59,260624,-5492
2024-12-19 08:14:59,260901,-5506
2024-12-19 08:14:59,260799,-5477
2024-12-19 08:14:59,260544,-5527
2024-12-19 08:14:59,260254,-5601
2024-12-19 08:14:59,260313,-5588
2024-12-19 08:14:59,260263,-5599
2024-12-19 08:14:59,260398,-5597
2024-12-19 08:14:59,260576,-5586
2024-12-19 08:14:59,260708,-5520
2024-12-19 08:14:59,260861,-5556
2024-12-19 08:15:00,260728,-5624
2024-12-19 08:15:00,260258,-5606
2024-12-19 08:15:00,260105,-5651
2024-12-19 08:15:00,260214,-5581
2024-12-19 08:15:00,260292,-5598
2024-12-19 08:15:00,260553,-5599
2024-12-19 08:15:00,260707,-5534
2024-12-19 08:15:00,260894,-5559
2024-12-19 08:15:00,260840,-5676
2024-12-19 08:15:00,260544,-5635
2024-12-19 08:15:00,260459,-5657
2024-12-19 08:15:00,260293,-5627
2024-12-19 08:15:00,260269,-5618
2024-12-19 08:15:00,260410,-5616
2024-12-19 08:15:00,260602,-5604
2024-12-19 08:15:00,260957,-5584
2024-12-19 08:15:00,261122,-5578
2024-12-19 08:15:00,260918,-5639
2024-12-19 08:15:00,260536,-5701
2024-12-19 08:15:00,260269,-5648
2024-12-19 08:15:00,260251,-5722
2024-12-19 08:15:00,260345,-5720
2024-12-19 08:15:00,260391,-5796
2024-12-19 08:15:00,260585,-5745
2024-12-19 08:15:00,260843,-5753
2024-12-19 08:15:00,260819,-5707
2024-12-19 08:15:00,260701,-5725
2024-12-19 08:15:00,260296,-5711
2024-12-19 08:15:00,260107,-5828
2024-12-19 08:15:00,260080,-5790
2024-12-19 08:15:00,260359,-5766
2024-12-19 08:15:00,260483,-5777
2024-12-19 08:15:00,260656,-5848
2024-12-19 08:15:00,260886,-5722
2024-12-19 08:15:00,260743,-5832
2024-12-19 08:15:00,260312,-5896
2024-12-19 08:15:00,260040,-5924
2024-12-19 08:15:00,260033,-5853
2024-12-19 08:15:00,260194,-5826
2024-12-19 08:15:00,260282,-5862
2024-12-19 08:15:00,260577,-5992
2024-12-19 08:15:00,260806,-6189
2024-12-19 08:15:00,260927,-6101
2024-12-19 08:15:00,260576,-5959
2024-12-19 08:15:00,260146,-5822
2024-12-19 08:15:00,260061,-5949
2024-12-19 08:15:00,260081,-5972
2024-12-19 08:15:00,260439,-5922
2024-12-19 08:15:00,260526,-5942
2024-12-19 08:15:00,260806,-5879
2024-12-19 08:15:00,260891,-5946
2024-12-19 08:15:00,260702,-6104
2024-12-19 08:15:00,260307,-6042
2024-12-19 08:15:00,260243,-6019
2024-12-19 08:15:00,260051,-6025
2024-12-19 08:15:00,260101,-5988
2024-12-19 08:15:00,260398,-5981
2024-12-19 08:15:00,260538,-5929
2024-12-19 08:15:00,260726,-6025
2024-12-19 08:15:00,260798,-6109
2024-12-19 08:15:00,260649,-6088
2024-12-19 08:15:00,260212,-6084
2024-12-19 08:15:00,260154,-6058
2024-12-19 08:15:00,260193,-5999
2024-12-19 08:15:00,260419,-6032
2024-12-19 08:15:00,260508,-6117
2024-12-19 08:15:00,260586,-6068
2024-12-19 08:15:00,260858,-6151
2024-12-19 08:15:00,260775,-6141
2024-12-19 08:15:00,260439,-6189
2024-12-19 08:15:00,260321,-6106
2024-12-19 08:15:00,260211,-6137
2024-12-19 08:15:00,260324,-6098
2024-12-19 08:15:00,260430,-6174
2024-12-19 08:15:00,260726,-6206
2024-12-19 08:15:00,260871,-6149
2024-12-19 08:15:00,260963,-6186
2024-12-19 08:15:00,260880,-6166
2024-12-19 08:15:00,260401,-6167
2024-12-19 08:15:00,260188,-6145
2024-12-19 08:15:00,260194,-6117
2024-12-19 08:15:00,260389,-6179
2024-12-19 08:15:00,260458,-6277
2024-12-19 08:15:00,260627,-6283
2024-12-19 08:15:00,260999,-6307
2024-12-19 08:15:00,260882,-6188
2024-12-19 08:15:00,260549,-6212
2024-12-19 08:15:00,260416,-6269
2024-12-19 08:15:00,260309,-6243
2024-12-19 08:15:00,260324,-6219
2024-12-19 08:15:00,260376,-6238
2024-12-19 08:15:00,260561,-6260
2024-12-19 08:15:00,260820,-6307
2024-12-19 08:15:00,260834,-6271
2024-12-19 08:15:00,260728,-6241
2024-12-19 08:15:00,260526,-6244
2024-12-19 08:15:00,260127,-6244
2024-12-19 08:15:00,260122,-6319
2024-12-19 08:15:00,260308,-6284
2024-12-19 08:15:00,260419,-6336
2024-12-19 08:15:00,260660,-6346
2024-12-19 08:15:00,260926,-6370
2024-12-19 08:15:00,260828,-6377
2024-12-19 08:15:00,260692,-6265
2024-12-19 08:15:00,260583,-6199
2024-12-19 08:15:00,260278,-6388
2024-12-19 08:15:00,260388,-6381
2024-12-19 08:15:00,260431,-6357
2024-12-19 08:15:00,260711,-6384
2024-12-19 08:15:00,260926,-6361
2024-12-19 08:15:00,260946,-6362
2024-12-19 08:15:00,260733,-6505
2024-12-19 08:15:00,260372,-6666
2024-12-19 08:15:00,260119,-6581
2024-12-19 08:15:00,260208,-6290
2024-12-19 08:15:00,260270,-6292
2024-12-19 08:15:00,260549,-6419
2024-12-19 08:15:00,260762,-6363
2024-12-19 08:15:00,261151,-6362
2024-12-19 08:15:00,261090,-6385
2024-12-19 08:15:00,260827,-6404
2024-12-19 08:15:00,260516,-6359
2024-12-19 08:15:00,260415,-6389
2024-12-19 08:15:00,260378,-6418
2024-12-19 08:15:00,260523,-6450
2024-12-19 08:15:00,260821,-6442
2024-12-19 08:15:00,261017,-6453
2024-12-19 08:15:00,261090,-6421
2024-12-19 08:15:00,260946,-6422
2024-12-19 08:15:00,260510,-6525
2024-12-19 08:15:00,260332,-6468
2024-12-19 08:15:00,260225,-6471
2024-12-19 08:15:00,260357,-6429
2024-12-19 08:15:00,260554,-6357
2024-12-19 08:15:00,260654,-6376
2024-12-19 08:15:00,260761,-6496
2024-12-19 08:15:00,260758,-6531
2024-12-19 08:15:00,260498,-6424
2024-12-19 08:15:00,260135,-6444
2024-12-19 08:15:00,259975,-6522
2024-12-19 08:15:00,259981,-6531
2024-12-19 08:15:00,260203,-6524
2024-12-19 08:15:00,260521,-6449
2024-12-19 08:15:00,260692,-6371
2024-12-19 08:15:00,260845,-6375
2024-12-19 08:15:00,260801,-6417
2024-12-19 08:15:00,260388,-6404
2024-12-19 08:15:00,260118,-6395
2024-12-19 08:15:00,260009,-6357
2024-12-19 08:15:00,260102,-6392
2024-12-19 08:15:00,260503,-6397
2024-12-19 08:15:00,260720,-6501
2024-12-19 08:15:00,260934,-6541
2024-12-19 08:15:00,261147,-6624
2024-12-19 08:15:00,261161,-6569
2024-12-19 08:15:00,260722,-6616
2024-12-19 08:15:00,260919,-6597
2024-12-19 08:15:00,261037,-6537
2024-12-19 08:15:00,261187,-6576
2024-12-19 08:15:00,261160,-6646
2024-12-19 08:15:00,261379,-6662
2024-12-19 08:15:00,261614,-6647
2024-12-19 08:15:00,261714,-6511
2024-12-19 08:15:00,261284,-6511
2024-12-19 08:15:00,260891,-6559
2024-12-19 08:15:00,260861,-6493
2024-12-19 08:15:00,260928,-6607
2024-12-19 08:15:00,260948,-6619
2024-12-19 08:15:00,261251,-6679
2024-12-19 08:15:00,261616,-6607
2024-12-19 08:15:00,261585,-6590
2024-12-19 08:15:00,261248,-6631
2024-12-19 08:15:00,260987,-6627
2024-12-19 08:15:00,260667,-6734
2024-12-19 08:15:00,260592,-6729
2024-12-19 08:15:00,260781,-6781
2024-12-19 08:15:00,260978,-6686
2024-12-19 08:15:00,261137,-6741
2024-12-19 08:15:00,261446,-6684
2024-12-19 08:15:00,261385,-6689
2024-12-19 08:15:00,261144,-6758
2024-12-19 08:15:00,260977,-6712
2024-12-19 08:15:00,260918,-6699
2024-12-19 08:15:01,261166,-6674
2024-12-19 08:15:01,261311,-6754
2024-12-19 08:15:01,261362,-6673
2024-12-19 08:15:01,261522,-6714
2024-12-19 08:15:01,261625,-6703
2024-12-19 08:15:01,261298,-6728
2024-12-19 08:15:01,260911,-6773
2024-12-19 08:15:01,260902,-6764
2024-12-19 08:15:01,260913,-6776
2024-12-19 08:15:01,261156,-6712
2024-12-19 08:15:01,261355,-6805
2024-12-19 08:15:01,261453,-6893
2024-12-19 08:15:01,261721,-6933
2024-12-19 08:15:01,261671,-6990
2024-12-19 08:15:01,261236,-6625
2024-12-19 08:15:01,261036,-6729
2024-12-19 08:15:01,260805,-6707
2024-12-19 08:15:01,260823,-6730
2024-12-19 08:15:01,260999,-6735
2024-12-19 08:15:01,261344,-6744
2024-12-19 08:15:01,261661,-6706
2024-12-19 08:15:01,261768,-6649
2024-12-19 08:15:01,261789,-6609
2024-12-19 08:15:01,262086,-6515
2024-12-19 08:15:01,263022,-6199
2024-12-19 08:15:01,263660,-5921
2024-12-19 08:15:01,265250,-5482
2024-12-19 08:15:01,267591,-5054
2024-12-19 08:15:01,268702,-4605
2024-12-19 08:15:01,268941,-4384
2024-12-19 08:15:01,268992,-4117
2024-12-19 08:15:01,268573,-3989
2024-12-19 08:15:01,266543,-4436
2024-12-19 08:15:01,262914,-5707
2024-12-19 08:15:01,258591,-7606
2024-12-19 08:15:01,255386,-8927
2024-12-19 08:15:01,254344,-9758
2024-12-19 08:15:01,253355,-10915
2024-12-19 08:15:01,249223,-11925
2024-12-19 08:15:01,246267,-12471
2024-12-19 08:15:01,246406,-12582
2024-12-19 08:15:01,246128,-12952
2024-12-19 08:15:01,245552,-13136
2024-12-19 08:15:01,246328,-13124
2024-12-19 08:15:01,247897,-12997
2024-12-19 08:15:01,250795,-12704
2024-12-19 08:15:01,253564,-12329
2024-12-19 08:15:01,255912,-11715
2024-12-19 08:15:01,257494,-10991
2024-12-19 08:15:01,258546,-10352
2024-12-19 08:15:01,258834,-9723
2024-12-19 08:15:01,259128,-9370
2024-12-19 08:15:01,260209,-8619
2024-12-19 08:15:01,261206,-8101
2024-12-19 08:15:01,261875,-7724
2024-12-19 08:15:01,261956,-7528
2024-12-19 08:15:01,261822,-7307
2024-12-19 08:15:01,261311,-7173
2024-12-19 08:15:01,261379,-7024
2024-12-19 08:15:01,261565,-6857
2024-12-19 08:15:01,261862,-6823
2024-12-19 08:15:01,262192,-6740
2024-12-19 08:15:01,262517,-6662
2024-12-19 08:15:01,262813,-6700
2024-12-19 08:15:01,262763,-6729
2024-12-19 08:15:01,262348,-6681
2024-12-19 08:15:01,262228,-6599
2024-12-19 08:15:01,262118,-6612
2024-12-19 08:15:01,262309,-6526
2024-12-19 08:15:01,262634,-6512
2024-12-19 08:15:02,262843,-6477
2024-12-19 08:15:02,263172,-6416
2024-12-19 08:15:03,263389,-6397
2024-12-19 08:15:03,263354,-6404
2024-12-19 08:15:04,262942,-6494
2024-12-19 08:15:04,262984,-6401
2024-12-19 08:15:04,262963,-6352
2024-12-19 08:15:05,263148,-6384
2024-12-19 08:15:05,263416,-6416
2024-12-19 08:15:06,263679,-6375
2024-12-19 08:15:06,263981,-6455
2024-12-19 08:15:06,263985,-6549
2024-12-19 08:15:07,263779,-6535
2024-12-19 08:15:07,263620,-6600
2024-12-19 08:15:07,263500,-6492
2024-12-19 08:15:08,263623,-6528
2024-12-19 08:15:08,263822,-6251
2024-12-19 08:15:09,263907,-6274
2024-12-19 08:15:09,264078,-6462
2024-12-19 08:15:10,264303,-6382
2024-12-19 08:15:10,264330,-6344
2024-12-19 08:15:10,264061,-6276
2024-12-19 08:15:11,263813,-6222
2024-12-19 08:15:11,263800,-6297
2024-12-19 08:15:12,263814,-6328
2024-12-19 08:15:12,264059,-6366
2024-12-19 08:15:12,264336,-6297
2024-12-19 08:15:13,264684,-6270
2024-12-19 08:15:13,264724,-6156
2024-12-19 08:15:14,264743,-6156
2024-12-19 08:15:14,264454,-6147
2024-12-19 08:15:15,264401,-6125
2024-12-19 08:15:15,264393,-6124
2024-12-19 08:15:16,264630,-6124
2024-12-19 08:15:16,264943,-6098
2024-12-19 08:15:16,265274,-6075
2024-12-19 08:15:17,265423,-6034
2024-12-19 08:15:17,265436,-6016
2024-12-19 08:15:18,265187,-6022
2024-12-19 08:15:18,265161,-5980
2024-12-19 08:15:18,265174,-5949
2024-12-19 08:15:19,265343,-5941
2024-12-19 08:15:19,265608,-5955
2024-12-19 08:15:19,266010,-5962
2024-12-19 08:15:20,266318,-5899
2024-12-19 08:15:20,266551,-5911
2024-12-19 08:15:20,266520,-5852
2024-12-19 08:15:20,266258,-5861
2024-12-19 08:15:21,266269,-5853
2024-12-19 08:15:21,266470,-5771
2024-12-19 08:15:21,266764,-5730
2024-12-19 08:15:22,267193,-5651
2024-12-19 08:15:22,267496,-5624
2024-12-19 08:15:23,267763,-5574
2024-12-19 08:15:23,267720,-5597
2024-12-19 08:15:24,267423,-5643
2024-12-19 08:15:24,267366,-5626
2024-12-19 08:15:24,267444,-5597
2024-12-19 08:15:25,267636,-5564
2024-12-19 08:15:25,267803,-5560
2024-12-19 08:15:26,267905,-5576
2024-12-19 08:15:26,268325,-5695
2024-12-19 08:15:27,268598,-5593
2024-12-19 08:15:27,268428,-5604
2024-12-19 08:15:28,268009,-5620
2024-12-19 08:15:28,268029,-5632
2024-12-19 08:15:29,268101,-5603
2024-12-19 08:15:29,268153,-5623
2024-12-19 08:15:29,268419,-5582
2024-12-19 08:15:30,268552,-5631
2024-12-19 08:15:30,268691,-5644
2024-12-19 08:15:31,268519,-5661
2024-12-19 08:15:31,268053,-5709
2024-12-19 08:15:31,267839,-5722
2024-12-19 08:15:32,267541,-5744
2024-12-19 08:15:32,267609,-5793
2024-12-19 08:15:33,267609,-5812
2024-12-19 08:15:33,267583,-5922
2024-12-19 08:15:34,267633,-6037
2024-12-19 08:15:34,267392,-6100
2024-12-19 08:15:35,267256,-6166
2024-12-19 08:15:35,266519,-6009
2024-12-19 08:15:35,266116,-5924
2024-12-19 08:15:35,265694,-6099
2024-12-19 08:15:35,265666,-6102
2024-12-19 08:15:35,265663,-6168
2024-12-19 08:15:35,265493,-6302
2024-12-19 08:15:35,265521,-6347
2024-12-19 08:15:35,265220,-6357
2024-12-19 08:15:35,264600,-6415
2024-12-19 08:15:35,264133,-6464
2024-12-19 08:15:35,263703,-6523
2024-12-19 08:15:35,263759,-6506
2024-12-19 08:15:35,263714,-6610
2024-12-19 08:15:35,263804,-6686
2024-12-19 08:15:35,263951,-6657
2024-12-19 08:15:35,263798,-6661
2024-12-19 08:15:35,263423,-6748
2024-12-19 08:15:35,262921,-6759
2024-12-19 08:15:35,262726,-6764
2024-12-19 08:15:35,262752,-6705
2024-12-19 08:15:35,262686,-6682
2024-12-19 08:15:35,262701,-6776
2024-12-19 08:15:35,262884,-6797
2024-12-19 08:15:35,263138,-6849
2024-12-19 08:15:35,262857,-6905
2024-12-19 08:15:35,262674,-6909
2024-12-19 08:15:35,262303,-6957
2024-12-19 08:15:35,262311,-6906
2024-12-19 08:15:35,262286,-6911
2024-12-19 08:15:35,262481,-6836
2024-12-19 08:15:35,262679,-6929
2024-12-19 08:15:35,262856,-7045
2024-12-19 08:15:35,262820,-7039
2024-12-19 08:15:35,262811,-6949
2024-12-19 08:15:35,262348,-6949
2024-12-19 08:15:35,262188,-6952
2024-12-19 08:15:35,262253,-6955
2024-12-19 08:15:35,262421,-6936
2024-12-19 08:15:35,262491,-6947
2024-12-19 08:15:35,262629,-7022
2024-12-19 08:15:35,262888,-6989
2024-12-19 08:15:35,262917,-6929
2024-12-19 08:15:35,262784,-6925
2024-12-19 08:15:35,262303,-6952
2024-12-19 08:15:35,262098,-7016
2024-12-19 08:15:35,262134,-6989
2024-12-19 08:15:35,262268,-7026
2024-12-19 08:15:35,262502,-7010
2024-12-19 08:15:35,262693,-7027
2024-12-19 08:15:35,263111,-6970
2024-12-19 08:15:35,263012,-7026
2024-12-19 08:15:35,262540,-7119
2024-12-19 08:15:35,262419,-7095
2024-12-19 08:15:35,262429,-6952
2024-12-19 08:15:35,262476,-6960
2024-12-19 08:15:35,262748,-7085
2024-12-19 08:15:35,262897,-7065
2024-12-19 08:15:35,263170,-7027
2024-12-19 08:15:35,263180,-7016
2024-12-19 08:15:35,262994,-7062
2024-12-19 08:15:35,262557,-7129
2024-12-19 08:15:35,262435,-7098
2024-12-19 08:15:35,262584,-7064
2024-12-19 08:15:35,262661,-7043
2024-12-19 08:15:35,262802,-7095
2024-12-19 08:15:35,262979,-7105
2024-12-19 08:15:35,263122,-7139
2024-12-19 08:15:35,263055,-7122
2024-12-19 08:15:35,262634,-7102
2024-12-19 08:15:35,262471,-7096
2024-12-19 08:15:35,262403,-7106
2024-12-19 08:15:35,262594,-7056
2024-12-19 08:15:35,262714,-7073
2024-12-19 08:15:35,262964,-7076
2024-12-19 08:15:35,263237,-7102
2024-12-19 08:15:35,263185,-7079
2024-12-19 08:15:35,262753,-7136
2024-12-19 08:15:35,262601,-7082
2024-12-19 08:15:35,262465,-7074
2024-12-19 08:15:35,262345,-7068
2024-12-19 08:15:35,262593,-7045
2024-12-19 08:15:35,262875,-7039
2024-12-19 08:15:35,263056,-7156
2024-12-19 08:15:35,263263,-7234
2024-12-19 08:15:35,263179,-7224
2024-12-19 08:15:35,262609,-7124
2024-12-19 08:15:35,262562,-7125
2024-12-19 08:15:35,262414,-7137
2024-12-19 08:15:35,262498,-7139
2024-12-19 08:15:35,262734,-7098
2024-12-19 08:15:35,263000,-7094
2024-12-19 08:15:35,263173,-7151
2024-12-19 08:15:35,263154,-7122
2024-12-19 08:15:35,262869,-7190
2024-12-19 08:15:35,262559,-7188
2024-12-19 08:15:35,262355,-7177
2024-12-19 08:15:35,262397,-7149
2024-12-19 08:15:35,262543,-7186
2024-12-19 08:15:35,262672,-7136
2024-12-19 08:15:35,262854,-7120
2024-12-19 08:15:35,263051,-7242
2024-12-19 08:15:35,263023,-7194
2024-12-19 08:15:35,262709,-7216
2024-12-19 08:15:35,262359,-7233
2024-12-19 08:15:35,262332,-7242
2024-12-19 08:15:35,262577,-7289
2024-12-19 08:15:35,262729,-7257
2024-12-19 08:15:35,262802,-7319
2024-12-19 08:15:35,263099,-7247
2024-12-19 08:15:35,263216,-7297
2024-12-19 08:15:35,262961,-7374
2024-12-19 08:15:35,262506,-7397
2024-12-19 08:15:35,262260,-7311
2024-12-19 08:15:35,262419,-7330
2024-12-19 08:15:35,262581,-7276
2024-12-19 08:15:35,262804,-7270
2024-12-19 08:15:35,263015,-7225
2024-12-19 08:15:35,263096,-7261
2024-12-19 08:15:35,263075,-7309
2024-12-19 08:15:35,262783,-7286
2024-12-19 08:15:35,262521,-7304
2024-12-19 08:15:35,262512,-7266
2024-12-19 08:15:35,262429,-7410
2024-12-19 08:15:35,262462,-7392
2024-12-19 08:15:35,262681,-7441
2024-12-19 08:15:35,262939,-7342
2024-12-19 08:15:35,263132,-7321
2024-12-19 08:15:35,262904,-7335
2024-12-19 08:15:35,262439,-7322
2024-12-19 08:15:35,262377,-7374
2024-12-19 08:15:35,262383,-7304
2024-12-19 08:15:35,262559,-7336
2024-12-19 08:15:35,262658,-7406
2024-12-19 08:15:35,262870,-7379
2024-12-19 08:15:35,263107,-7456
2024-12-19 08:15:35,262963,-7412
2024-12-19 08:15:35,262631,-7405
2024-12-19 08:15:35,262437,-7339
2024-12-19 08:15:35,262486,-7389
2024-12-19 08:15:35,262358,-7356
2024-12-19 08:15:35,262602,-7402
2024-12-19 08:15:35,262785,-7352
2024-12-19 08:15:35,263037,-7350
2024-12-19 08:15:35,263136,-7360
2024-12-19 08:15:35,262994,-7372
2024-12-19 08:15:35,262598,-7406
2024-12-19 08:15:35,262511,-7292
2024-12-19 08:15:35,262519,-7377
2024-12-19 08:15:35,262518,-7392
2024-12-19 08:15:35,262719,-7453
2024-12-19 08:15:35,262938,-7414
2024-12-19 08:15:35,263183,-7362
2024-12-19 08:15:35,263051,-7340
2024-12-19 08:15:35,262797,-7482
2024-12-19 08:15:35,262529,-7548
2024-12-19 08:15:35,262395,-7456
2024-12-19 08:15:35,262513,-7592
2024-12-19 08:15:35,262574,-7617
2024-12-19 08:15:35,262756,-7510
2024-12-19 08:15:35,262736,-7370
2024-12-19 08:15:35,263068,-7381
2024-12-19 08:15:35,262982,-7444
2024-12-19 08:15:35,262637,-7430
2024-12-19 08:15:35,262441,-7434
2024-12-19 08:15:35,262371,-7411
2024-12-19 08:15:35,262382,-7444
2024-12-19 08:15:35,262500,-7466
2024-12-19 08:15:35,262700,-7422
2024-12-19 08:15:35,262960,-7453
2024-12-19 08:15:35,263018,-7432
2024-12-19 08:15:35,262723,-7416
2024-12-19 08:15:35,262367,-7392
2024-12-19 08:15:35,262376,-7447
2024-12-19 08:15:35,262388,-7471
2024-12-19 08:15:35,262463,-7498
2024-12-19 08:15:35,262632,-7565
2024-12-19 08:15:35,262929,-7496
2024-12-19 08:15:35,263060,-7479
2024-12-19 08:15:35,263093,-7531
2024-12-19 08:15:35,262443,-7566
2024-12-19 08:15:35,262314,-7589
2024-12-19 08:15:35,262276,-7511
2024-12-19 08:15:35,262380,-7427
2024-12-19 08:15:35,262795,-7400
2024-12-19 08:15:35,262818,-7441
2024-12-19 08:15:35,263016,-7451
2024-12-19 08:15:35,263056,-7484
2024-12-19 08:15:35,262823,-7452
2024-12-19 08:15:35,262461,-7529
2024-12-19 08:15:35,262398,-7564
2024-12-19 08:15:35,262414,-7599
2024-12-19 08:15:35,262633,-7563
2024-12-19 08:15:35,262813,-7477
2024-12-19 08:15:35,263044,-7496
2024-12-19 08:15:35,263070,-7546
2024-12-19 08:15:35,262949,-7486
2024-12-19 08:15:35,262551,-7497
2024-12-19 08:15:35,262503,-7528
2024-12-19 08:15:35,262508,-7489
2024-12-19 08:15:35,262491,-7502
2024-12-19 08:15:35,262594,-7501
2024-12-19 08:15:35,262778,-7541
2024-12-19 08:15:35,263055,-7576
2024-12-19 08:15:35,263166,-7485
2024-12-19 08:15:35,263045,-7465
2024-12-19 08:15:35,262726,-7415
2024-12-19 08:15:35,262346,-7605
2024-12-19 08:15:35,262386,-7516
2024-12-19 08:15:35,262561,-7531
2024-12-19 08:15:35,262833,-7596
2024-12-19 08:15:35,263049,-7542
2024-12-19 08:15:35,263248,-7577
2024-12-19 08:15:35,263189,-7567
2024-12-19 08:15:35,262610,-7621
2024-12-19 08:15:35,262435,-7633
2024-12-19 08:15:35,262409,-7626
2024-12-19 08:15:35,262593,-7608
2024-12-19 08:15:35,262768,-7550
2024-12-19 08:15:35,262986,-7562
2024-12-19 08:15:35,263131,-7622
2024-12-19 08:15:35,263143,-7634
2024-12-19 08:15:35,263051,-7502
2024-12-19 08:15:35,262674,-7547
2024-12-19 08:15:35,262596,-7474
2024-12-19 08:15:35,262447,-7541
2024-12-19 08:15:35,262657,-7484
2024-12-19 08:15:35,262728,-7598
2024-12-19 08:15:35,262737,-7659
2024-12-19 08:15:35,263009,-7686
2024-12-19 08:15:35,262909,-7717
2024-12-19 08:15:35,262062,-7649
2024-12-19 08:15:35,261958,-7460
2024-12-19 08:15:35,261995,-7506
2024-12-19 08:15:35,262033,-7642
2024-12-19 08:15:35,262189,-7567
2024-12-19 08:15:35,262459,-7503
2024-12-19 08:15:35,262788,-7461
2024-12-19 08:15:35,262824,-7393
2024-12-19 08:15:35,262654,-7384
2024-12-19 08:15:35,262300,-7392
2024-12-19 08:15:35,262088,-7409
2024-12-19 08:15:35,261917,-7519
2024-12-19 08:15:35,262037,-7445
2024-12-19 08:15:35,262584,-7431
2024-12-19 08:15:35,262740,-7511
2024-12-19 08:15:35,262962,-7556
2024-12-19 08:15:35,263096,-7566
2024-12-19 08:15:35,262783,-7634
2024-12-19 08:15:35,262906,-7484
2024-12-19 08:15:35,262876,-7478
2024-12-19 08:15:35,263044,-7544
2024-12-19 08:15:35,263080,-7631
2024-12-19 08:15:35,263269,-7612
2024-12-19 08:15:35,263385,-7610
2024-12-19 08:15:35,263588,-7547
2024-12-19 08:15:35,263428,-7563
2024-12-19 08:15:35,263156,-7609
2024-12-19 08:15:35,262934,-7650
2024-12-19 08:15:35,262847,-7581
2024-12-19 08:15:35,262905,-7679
2024-12-19 08:15:35,263071,-7694
2024-12-19 08:15:35,263174,-7637
2024-12-19 08:15:35,263401,-7659
2024-12-19 08:15:35,263331,-7684
2024-12-19 08:15:35,263101,-7656
2024-12-19 08:15:35,262779,-7632
2024-12-19 08:15:35,262588,-7674
2024-12-19 08:15:35,262690,-7672
2024-12-19 08:15:35,262861,-7688
2024-12-19 08:15:35,263146,-7700
2024-12-19 08:15:35,263328,-7696
2024-12-19 08:15:35,263388,-7738
2024-12-19 08:15:35,263108,-7788
2024-12-19 08:15:35,262731,-7794
2024-12-19 08:15:35,262675,-7711
2024-12-19 08:15:35,262741,-7772
2024-12-19 08:15:35,262838,-7782
2024-12-19 08:15:35,262917,-7800
2024-12-19 08:15:35,263118,-7721
2024-12-19 08:15:35,263412,-7759
2024-12-19 08:15:35,263359,-7821
2024-12-19 08:15:35,263186,-7772
2024-12-19 08:15:35,262857,-7726
2024-12-19 08:15:35,262751,-7729
2024-12-19 08:15:35,262558,-7752
2024-12-19 08:15:35,262835,-7751
2024-12-19 08:15:35,263132,-7753
2024-12-19 08:15:35,263376,-7742
2024-12-19 08:15:35,263559,-7718
2024-12-19 08:15:35,263287,-7815
2024-12-19 08:15:35,262784,-7694
2024-12-19 08:15:35,262786,-7683
2024-12-19 08:15:35,262774,-7661
2024-12-19 08:15:35,262819,-7739
2024-12-19 08:15:35,263066,-7802
2024-12-19 08:15:35,263221,-7892
2024-12-19 08:15:35,263388,-7935
2024-12-19 08:15:35,263541,-7952
2024-12-19 08:15:35,263449,-7597
2024-12-19 08:15:35,263561,-7527
2024-12-19 08:15:35,264644,-7209
2024-12-19 08:15:35,265376,-7027
2024-12-19 08:15:35,266603,-6707
2024-12-19 08:15:35,268718,-6315
2024-12-19 08:15:35,270152,-5828
2024-12-19 08:15:35,270728,-5454
2024-12-19 08:15:35,270902,-5298
2024-12-19 08:15:35,270220,-5031
2024-12-19 08:15:35,268334,-5455
2024-12-19 08:15:35,264126,-6799
2024-12-19 08:15:35,259626,-8549
2024-12-19 08:15:35,256573,-9727
2024-12-19 08:15:35,255293,-10598
2024-12-19 08:15:35,254036,-11720
2024-12-19 08:15:35,249539,-12586
2024-12-19 08:15:35,246846,-13099
2024-12-19 08:15:35,246813,-13157
2024-12-19 08:15:35,247561,-13226
2024-12-19 08:15:35,246620,-13554
2024-12-19 08:15:35,246848,-13834
2024-12-19 08:15:35,247712,-13909
2024-12-19 08:15:35,250334,-13672
2024-12-19 08:15:35,253286,-13311
2024-12-19 08:15:35,255720,-12878
2024-12-19 08:15:35,257716,-12173
2024-12-19 08:15:35,259143,-11485
2024-12-19 08:15:35,259986,-10841
2024-12-19 08:15:35,260603,-10236
2024-12-19 08:15:35,261708,-9544
2024-12-19 08:15:35,262786,-9092
2024-12-19 08:15:35,263557,-8731
2024-12-19 08:15:35,263713,-8497
2024-12-19 08:15:35,263354,-8281
2024-12-19 08:15:35,263005,-8132
2024-12-19 08:15:35,263077,-7931
2024-12-19 08:15:35,263466,-7717
2024-12-19 08:15:35,263568,-7614
2024-12-19 08:15:35,263914,-7532
2024-12-19 08:15:35,264148,-7574
2024-12-19 08:15:35,264346,-7729
2024-12-19 08:15:35,264306,-7711
2024-12-19 08:15:35,264141,-7639
2024-12-19 08:15:35,263916,-7572
2024-12-19 08:15:35,263923,-7521
2024-12-19 08:15:35,264071,-7434
2024-12-19 08:15:35,264288,-7492
2024-12-19 08:15:35,264762,-7479
2024-12-19 08:15:35,265041,-7438
2024-12-19 08:15:35,265141,-7357
2024-12-19 08:15:35,264910,-7295
2024-12-19 08:15:35,264602,-7351
2024-12-19 08:15:35,264481,-7377
2024-12-19 08:15:35,264618,-7364
2024-12-19 08:15:35,264744,-7276
2024-12-19 08:15:35,265011,-7301
2024-12-19 08:15:35,265362,-7306
2024-12-19 08:15:35,265539,-7274
2024-12-19 08:15:35,265558,-7337
2024-12-19 08:15:35,265457,-7343
2024-12-19 08:15:35,265191,-7294
2024-12-19 08:15:35,265060,-7009
2024-12-19 08:15:35,265223,-7090
2024-12-19 08:15:35,265335,-7181
2024-12-19 08:15:35,265566,-7247
2024-12-19 08:15:35,265811,-7217
2024-12-19 08:15:35,265994,-7226
2024-12-19 08:15:35,265807,-7147
2024-12-19 08:15:35,265509,-7153
2024-12-19 08:15:35,265322,-7209
2024-12-19 08:15:35,265298,-7186
2024-12-19 08:15:35,265383,-7099
2024-12-19 08:15:35,265729,-7077
2024-12-19 08:15:35,266001,-7108
2024-12-19 08:15:35,266203,-7114
2024-12-19 08:15:35,266233,-7061
2024-12-19 08:15:35,266115,-7029
2024-12-19 08:15:35,265868,-7045
2024-12-19 08:15:35,265881,-6958
2024-12-19 08:15:35,266077,-6942
2024-12-19 08:15:35,266314,-6879
2024-12-19 08:15:35,266598,-6915
2024-12-19 08:15:35,266794,-6874
2024-12-19 08:15:35,266935,-7005
2024-12-19 08:15:35,266944,-6926
2024-12-19 08:15:35,266701,-6856
2024-12-19 08:15:35,266668,-6799
2024-12-19 08:15:35,266835,-6761
2024-12-19 08:15:35,266961,-6720
2024-12-19 08:15:35,267338,-6674
2024-12-19 08:15:35,267704,-6656
2024-12-19 08:15:35,267994,-6677
2024-12-19 08:15:35,267978,-6661
2024-12-19 08:15:35,267765,-6661
2024-12-19 08:15:35,267682,-6536
2024-12-19 08:15:35,267829,-6563
2024-12-19 08:15:35,267862,-6562
2024-12-19 08:15:35,268231,-6540
2024-12-19 08:15:35,268625,-6556
2024-12-19 08:15:35,268944,-6479
2024-12-19 08:15:35,269333,-6464
2024-12-19 08:15:35,269376,-6442
2024-12-19 08:15:35,269063,-6432
2024-12-19 08:15:35,268992,-6390
2024-12-19 08:15:35,268875,-6464
2024-12-19 08:15:35,269181,-6382
2024-12-19 08:15:35,269309,-6417
2024-12-19 08:15:35,269753,-6291
2024-12-19 08:15:35,270108,-6418
2024-12-19 08:15:35,270192,-6357
2024-12-19 08:15:35,269907,-6326
2024-12-19 08:15:35,269563,-6201
2024-12-19 08:15:35,269374,-6301
2024-12-19 08:15:35,269532,-6347
2024-12-19 08:15:35,269666,-6405
2024-12-19 08:15:35,269966,-6381
2024-12-19 08:15:35,270059,-6369
2024-12-19 08:15:35,270259,-6391
2024-12-19 08:15:35,270069,-6431
2024-12-19 08:15:35,269720,-6533
2024-12-19 08:15:35,269421,-6456
2024-12-19 08:15:35,269269,-6577
2024-12-19 08:15:35,269268,-6681
2024-12-19 08:15:35,269239,-6739
2024-12-19 08:15:35,269212,-6501
2024-12-19 08:15:35,269282,-6535
2024-12-19 08:15:35,269108,-6609
2024-12-19 08:15:35,268654,-6676
2024-12-19 08:15:35,268140,-6714
2024-12-19 08:15:35,267659,-6779
2024-12-19 08:15:35,267390,-6895
2024-12-19 08:15:35,267254,-6894
2024-12-19 08:15:35,267337,-6921
2024-12-19 08:15:35,267374,-6899
2024-12-19 08:15:35,267194,-7008
2024-12-19 08:15:35,266676,-7015
2024-12-19 08:15:35,266275,-7101
2024-12-19 08:15:35,265818,-7206
2024-12-19 08:15:35,265336,-7202
2024-12-19 08:15:35,265238,-7252
2024-12-19 08:15:35,265149,-7340
2024-12-19 08:15:35,265247,-7346
2024-12-19 08:15:35,265319,-7195
2024-12-19 08:15:35,265091,-7451
2024-12-19 08:15:35,264835,-7439
2024-12-19 08:15:35,264322,-7381
2024-12-19 08:15:35,263999,-7421
2024-12-19 08:15:35,263848,-7514
2024-12-19 08:15:35,264029,-7523
2024-12-19 08:15:35,264171,-7543
2024-12-19 08:15:35,264283,-7589
2024-12-19 08:15:35,264376,-7563
2024-12-19 08:15:35,264345,-7537
2024-12-19 08:15:35,263796,-7507
2024-12-19 08:15:35,263608,-7554
2024-12-19 08:15:35,263549,-7569
2024-12-19 08:15:35,265151,-8429
2024-12-19 08:15:35,265293,-8362
2024-12-19 08:15:35,265578,-8390
2024-12-19 08:15:35,265795,-8369
2024-12-19 08:15:35,265879,-8373
2024-12-19 08:15:35,265875,-8402
2024-12-19 08:15:35,265522,-8415
2024-12-19 08:15:35,265393,-8467
2024-12-19 08:15:35,265375,-8344
2024-12-19 08:15:35,265430,-8304
2024-12-19 08:15:35,265597,-8363
2024-12-19 08:15:35,265955,-8299
2024-12-19 08:15:35,266083,-8319
2024-12-19 08:15:35,265999,-8293
2024-12-19 08:15:35,265853,-8356
2024-12-19 08:15:35,265649,-8332
2024-12-19 08:15:35,265454,-8332
2024-12-19 08:15:35,265508,-8341
2024-12-19 08:15:35,265394,-8328
2024-12-19 08:15:35,265562,-8395
2024-12-19 08:15:35,265933,-8377
2024-12-19 08:15:35,266204,-8328
2024-12-19 08:15:35,266121,-8296
2024-12-19 08:15:35,265783,-8286
2024-12-19 08:15:35,265307,-8432
2024-12-19 08:15:35,265283,-8474
2024-12-19 08:15:35,265284,-8436
2024-12-19 08:15:35,265236,-8488
2024-12-19 08:15:35,265488,-8507
2024-12-19 08:15:35,265789,-8623
2024-12-19 08:15:35,265777,-8639
2024-12-19 08:15:35,265586,-8587
2024-12-19 08:15:35,265209,-8636
2024-12-19 08:15:35,265262,-8604
2024-12-19 08:15:35,265096,-8635
2024-12-19 08:15:35,265218,-8597
2024-12-19 08:15:35,265445,-8678
2024-12-19 08:15:35,265401,-8877
2024-12-19 08:15:35,265625,-8956
2024-12-19 08:15:35,265660,-8791
2024-12-19 08:15:35,265532,-8613
2024-12-19 08:15:35,265133,-8585
2024-12-19 08:15:35,265171,-8507
2024-12-19 08:15:35,265177,-8562
2024-12-19 08:15:35,265253,-8618
2024-12-19 08:15:35,265440,-8710
2024-12-19 08:15:35,265852,-8729
2024-12-19 08:15:35,265898,-8707
2024-12-19 08:15:35,265739,-8732
2024-12-19 08:15:35,265336,-8664
2024-12-19 08:15:35,265211,-8589
2024-12-19 08:15:35,265009,-8591
2024-12-19 08:15:35,265086,-8602
2024-12-19 08:15:35,265243,-8600
2024-12-19 08:15:35,265296,-8684
2024-12-19 08:15:35,265437,-8735
2024-12-19 08:15:35,265529,-8661
2024-12-19 08:15:35,265404,-8665
2024-12-19 08:15:35,265022,-8637
2024-12-19 08:15:35,265078,-8465
2024-12-19 08:15:35,265144,-8480
2024-12-19 08:15:35,265315,-8458
2024-12-19 08:15:35,265564,-8451
2024-12-19 08:15:35,265633,-8518
2024-12-19 08:15:35,265798,-8469
2024-12-19 08:15:35,265835,-8415
2024-12-19 08:15:35,265498,-8381
2024-12-19 08:15:35,265356,-8500
2024-12-19 08:15:35,265308,-8565
2024-12-19 08:15:35,265641,-8752
2024-12-19 08:15:35,265731,-8747
2024-12-19 08:15:35,265813,-8682
2024-12-19 08:15:35,266361,-8598
2024-12-19 08:15:35,266357,-8641
2024-12-19 08:15:35,265916,-8630
2024-12-19 08:15:35,265608,-8633
2024-12-19 08:15:35,265416,-8669
2024-12-19 08:15:35,265423,-8564
2024-12-19 08:15:35,265563,-8541
2024-12-19 08:15:35,265724,-8503
2024-12-19 08:15:35,266018,-8505
2024-12-19 08:15:35,266189,-8507
2024-12-19 08:15:35,266119,-8492
2024-12-19 08:15:35,265714,-8490
2024-12-19 08:15:35,265334,-8606
2024-12-19 08:15:35,265252,-8588
2024-12-19 08:15:35,265299,-8576
2024-12-19 08:15:35,265358,-8591
2024-12-19 08:15:35,265613,-8654
2024-12-19 08:15:35,265853,-8596
2024-12-19 08:15:35,266054,-8496
2024-12-19 08:15:35,265758,-8479
2024-12-19 08:15:35,265436,-8471
2024-12-19 08:15:35,265233,-8508
2024-12-19 08:15:35,265108,-8591
2024-12-19 08:15:35,265176,-8504
2024-12-19 08:15:35,265465,-8537
2024-12-19 08:15:35,265699,-8536
2024-12-19 08:15:35,266186,-8546
2024-12-19 08:15:35,266318,-8496
2024-12-19 08:15:35,265741,-8504
2024-12-19 08:15:35,265700,-8480
2024-12-19 08:15:35,265551,-8567
2024-12-19 08:15:35,265405,-8614
2024-12-19 08:15:35,265608,-8365
2024-12-19 08:15:35,265741,-8477
2024-12-19 08:15:35,266038,-8529
2024-12-19 08:15:35,266131,-8476
2024-12-19 08:15:35,265936,-8434
2024-12-19 08:15:35,265561,-8411
2024-12-19 08:15:35,265351,-8376
2024-12-19 08:15:35,265215,-8444
2024-12-19 08:15:35,265534,-8395
2024-12-19 08:15:35,265681,-8376
2024-12-19 08:15:35,265845,-8394
2024-12-19 08:15:35,265992,-8372
2024-12-19 08:15:35,266151,-8332
2024-12-19 08:15:35,265871,-8409
2024-12-19 08:15:35,265361,-8466
2024-12-19 08:15:35,265161,-8434
2024-12-19 08:15:35,265293,-8355
2024-12-19 08:15:35,265763,-8316
2024-12-19 08:15:35,266821,-8159
2024-12-19 08:15:35,268102,-8023
2024-12-19 08:15:35,268878,-7732
2024-12-19 08:15:35,270068,-7259
2024-12-19 08:15:35,271749,-6871
2024-12-19 08:15:35,272987,-6538
2024-12-19 08:15:35,273191,-6329
2024-12-19 08:15:35,273899,-6079
2024-12-19 08:15:35,273368,-5888
2024-12-19 08:15:35,270699,-6519
2024-12-19 08:15:35,266133,-7889
2024-12-19 08:15:35,261294,-9393
2024-12-19 08:15:35,259576,-9967
2024-12-19 08:15:35,257271,-10716
2024-12-19 08:15:35,255358,-11857
2024-12-19 08:15:35,250786,-12884
2024-12-19 08:15:35,247636,-13608
2024-12-19 08:15:35,248373,-13698
2024-12-19 08:15:35,248526,-13997
2024-12-19 08:15:35,248076,-14301
2024-12-19 08:15:35,248240,-14519
2024-12-19 08:15:35,249294,-14442
2024-12-19 08:15:35,252144,-14266
2024-12-19 08:15:35,254664,-13959
2024-12-19 08:15:35,257559,-13373
2024-12-19 08:15:35,260086,-12729
2024-12-19 08:15:35,261783,-12006
2024-12-19 08:15:35,262890,-11428
2024-12-19 08:15:35,263774,-10698
2024-12-19 08:15:35,264436,-10116
2024-12-19 08:15:35,264893,-9724
2024-12-19 08:15:35,265096,-9427
2024-12-19 08:15:35,265156,-9330
2024-12-19 08:15:35,265333,-9167
2024-12-19 08:15:35,265688,-8932
2024-12-19 08:15:35,266095,-8774
2024-12-19 08:15:35,266541,-8641
2024-12-19 08:15:35,266691,-8511
2024-12-19 08:15:35,266359,-8441
2024-12-19 08:15:35,266280,-8343
2024-12-19 08:15:35,266233,-8380
2024-12-19 08:15:35,266311,-8278
2024-12-19 08:15:35,266616,-8201
2024-12-19 08:15:35,266930,-8229
2024-12-19 08:15:35,267188,-8274
2024-12-19 08:15:35,267197,-8222
2024-12-19 08:15:35,266913,-8224
2024-12-19 08:15:35,266638,-8103
2024-12-19 08:15:35,266608,-8072
2024-12-19 08:15:35,266781,-8028
2024-12-19 08:15:35,266930,-8022
2024-12-19 08:15:35,267302,-7992
2024-12-19 08:15:35,267390,-7954
2024-12-19 08:15:35,267689,-7951
2024-12-19 08:15:35,267648,-7967
2024-12-19 08:15:35,267344,-7944
2024-12-19 08:15:35,267208,-7854
2024-12-19 08:15:35,267190,-7866
2024-12-19 08:15:35,267329,-7792
2024-12-19 08:15:35,267611,-7840
2024-12-19 08:15:35,267777,-7818
2024-12-19 08:15:35,268141,-7721
2024-12-19 08:15:35,268216,-7814
2024-12-19 08:15:35,268130,-7682
2024-12-19 08:15:35,267874,-7791
2024-12-19 08:15:35,267947,-7661
2024-12-19 08:15:35,267951,-7631
2024-12-19 08:15:35,267983,-7690
2024-12-19 08:15:35,268254,-7647
2024-12-19 08:15:35,268551,-7619
2024-12-19 08:15:35,268799,-7577
2024-12-19 08:15:35,268809,-7554
2024-12-19 08:15:35,268583,-7481
2024-12-19 08:15:35,268368,-7489
2024-12-19 08:15:35,268229,-7470
2024-12-19 08:15:35,268450,-7404
2024-12-19 08:15:35,268618,-7465
2024-12-19 08:15:35,268925,-7466
2024-12-19 08:15:35,269241,-7400
2024-12-19 08:15:35,269399,-7354
2024-12-19 08:15:35,269416,-7344
2024-12-19 08:15:35,269093,-7339
2024-12-19 08:15:35,269101,-7326
2024-12-19 08:15:35,269013,-7368
2024-12-19 08:15:35,269261,-7347
2024-12-19 08:15:35,269558,-7374
2024-12-19 08:15:35,269956,-7319
2024-12-19 08:15:35,270214,-7195
2024-12-19 08:15:35,270291,-7134
2024-12-19 08:15:35,269971,-7088
2024-12-19 08:15:35,269988,-7063
2024-12-19 08:15:35,269972,-7036
2024-12-19 08:15:35,270069,-7126
2024-12-19 08:15:35,270376,-7132
2024-12-19 08:15:35,270456,-7179
2024-12-19 08:15:35,270654,-7261
2024-12-19 08:15:35,271024,-7186
2024-12-19 08:15:35,271181,-7123
2024-12-19 08:15:35,270842,-7184
2024-12-19 08:15:35,270873,-7118
2024-12-19 08:15:35,270993,-7105
2024-12-19 08:15:35,271130,-7111
2024-12-19 08:15:35,271519,-7096
2024-12-19 08:15:35,271717,-7145
2024-12-19 08:15:35,272109,-7119
2024-12-19 08:15:35,272021,-7126
2024-12-19 08:15:35,271856,-7087
2024-12-19 08:15:35,271913,-7002
2024-12-19 08:15:35,271883,-7001
2024-12-19 08:15:35,272219,-7231
2024-12-19 08:15:35,272439,-7404
2024-12-19 08:15:35,272532,-7429
2024-12-19 08:15:35,272497,-7289
2024-12-19 08:15:35,272781,-7106
2024-12-19 08:15:35,272611,-7204
2024-12-19 08:15:35,272225,-7259
2024-12-19 08:15:35,272284,-7233
2024-12-19 08:15:35,272227,-7197
2024-12-19 08:15:35,272312,-7142
2024-12-19 08:15:35,272355,-7256
2024-12-19 08:15:35,272403,-7375
2024-12-19 08:15:35,272589,-7333
2024-12-19 08:15:35,272516,-7389
2024-12-19 08:15:35,272114,-7317
2024-12-19 08:15:35,271751,-7382
2024-12-19 08:15:35,271426,-7422
2024-12-19 08:15:35,271271,-7481
2024-12-19 08:15:35,271021,-7542
2024-12-19 08:15:35,271071,-7521
2024-12-19 08:15:35,270974,-7521
2024-12-19 08:15:35,270671,-7596
2024-12-19 08:15:35,270445,-7577
2024-12-19 08:15:35,269714,-7642
2024-12-19 08:15:35,269253,-7657
2024-12-19 08:15:35,268953,-7711
2024-12-19 08:15:35,268690,-7754
2024-12-19 08:15:35,268621,-7767
2024-12-19 08:15:35,268428,-7837
2024-12-19 08:15:35,268381,-7913
2024-12-19 08:15:35,268231,-7928
2024-12-19 08:15:35,267623,-7969
2024-12-19 08:15:35,267206,-7947
2024-12-19 08:15:35,266746,-7909
2024-12-19 08:15:35,266677,-7899
2024-12-19 08:15:35,266579,-8001
2024-12-19 08:15:35,266660,-8036
2024-12-19 08:15:35,266767,-8045
2024-12-19 08:15:35,266751,-8097
2024-12-19 08:15:35,266365,-8034
2024-12-19 08:15:35,265799,-8141
2024-12-19 08:15:35,265739,-8086
2024-12-19 08:15:35,265696,-8051
2024-12-19 08:15:35,265728,-8029
2024-12-19 08:15:35,265804,-8028
2024-12-19 08:15:35,265854,-8057
2024-12-19 08:15:35,266057,-8085
2024-12-19 08:15:35,266081,-8066
2024-12-19 08:15:35,265821,-8012
2024-12-19 08:15:35,265589,-8079
2024-12-19 08:15:35,265473,-8092
2024-12-19 08:15:35,265513,-8176
2024-12-19 08:15:35,265709,-8088
2024-12-19 08:15:35,265847,-8122
2024-12-19 08:15:35,266148,-8074
2024-12-19 08:15:35,266281,-8136
2024-12-19 08:15:35,266044,-8089
2024-12-19 08:15:35,265741,-8114
2024-12-19 08:15:35,265594,-8049
2024-12-19 08:15:35,265685,-8074
2024-12-19 08:15:35,265626,-8059
2024-12-19 08:15:35,265824,-8092
2024-12-19 08:15:35,265854,-8092
2024-12-19 08:15:35,266079,-8169
2024-12-19 08:15:35,266155,-8179
2024-12-19 08:15:35,265934,-8099
2024-12-19 08:15:35,265611,-8075
2024-12-19 08:15:35,265655,-8051
2024-12-19 08:15:35,265508,-8100
2024-12-19 08:15:35,265581,-8125
2024-12-19 08:15:35,265973,-8059
2024-12-19 08:15:35,266093,-8119
2024-12-19 08:15:35,266249,-8181
2024-12-19 08:15:35,266133,-8268
2024-12-19 08:15:35,265735,-8265
2024-12-19 08:15:35,265543,-8245
2024-12-19 08:15:35,265389,-8101
2024-12-19 08:15:35,265516,-8227
2024-12-19 08:15:35,265823,-8460
2024-12-19 08:15:35,265819,-8476
2024-12-19 08:15:35,266093,-8204
2024-12-19 08:15:35,266208,-8102
2024-12-19 08:15:35,266005,-8211
2024-12-19 08:15:35,265495,-8357
2024-12-19 08:15:35,265343,-8300
2024-12-19 08:15:35,265324,-8349
2024-12-19 08:15:35,265604,-8308
2024-12-19 08:15:35,265749,-8325
