Timestamp,ECG_CH1,ECG_CH2
2024-12-19 08:29:12,234758,-2925
2024-12-19 08:29:12,234911,-2908
2024-12-19 08:29:12,235015,-2849
2024-12-19 08:29:12,234996,-2952
2024-12-19 08:29:12,234857,-3017
2024-12-19 08:29:12,235092,-3244
2024-12-19 08:29:12,235279,-3066
2024-12-19 08:29:12,234738,-2947
2024-12-19 08:29:12,234626,-2949
2024-12-19 08:29:12,234626,-2986
2024-12-19 08:29:12,234701,-3033
2024-12-19 08:29:12,234881,-3008
2024-12-19 08:29:12,235031,-3056
2024-12-19 08:29:12,235381,-3137
2024-12-19 08:29:12,235336,-3197
2024-12-19 08:29:12,234931,-3204
2024-12-19 08:29:12,234289,-3016
2024-12-19 08:29:12,234322,-3140
2024-12-19 08:29:12,234457,-3169
2024-12-19 08:29:12,234617,-3159
2024-12-19 08:29:12,234646,-3167
2024-12-19 08:29:12,234663,-3185
2024-12-19 08:29:12,234923,-3191
2024-12-19 08:29:12,235018,-3189
2024-12-19 08:29:12,234528,-3220
2024-12-19 08:29:12,234369,-3187
2024-12-19 08:29:12,234498,-3203
2024-12-19 08:29:12,234657,-3246
2024-12-19 08:29:12,234701,-3292
2024-12-19 08:29:12,234723,-3126
2024-12-19 08:29:12,234928,-3225
2024-12-19 08:29:12,235023,-3240
2024-12-19 08:29:12,234698,-3281
2024-12-19 08:29:12,234296,-3294
2024-12-19 08:29:12,234353,-3277
2024-12-19 08:29:12,234376,-3261
2024-12-19 08:29:12,234547,-3316
2024-12-19 08:29:12,234689,-3414
2024-12-19 08:29:12,234525,-3457
2024-12-19 08:29:12,234889,-3311
2024-12-19 08:29:12,235112,-3257
2024-12-19 08:29:12,234898,-3265
2024-12-19 08:29:12,234625,-3161
2024-12-19 08:29:12,234551,-3222
2024-12-19 08:29:12,234692,-3365
2024-12-19 08:29:12,234775,-3447
2024-12-19 08:29:12,234552,-3355
2024-12-19 08:29:12,234748,-3375
2024-12-19 08:29:12,234938,-3413
2024-12-19 08:29:12,234842,-3382
2024-12-19 08:29:12,234450,-3316
2024-12-19 08:29:12,234394,-3375
2024-12-19 08:29:12,234431,-3384
2024-12-19 08:29:12,234538,-3386
2024-12-19 08:29:12,234546,-3414
2024-12-19 08:29:12,234536,-3533
2024-12-19 08:29:12,234949,-3471
2024-12-19 08:29:12,235086,-3433
2024-12-19 08:29:12,234861,-3336
2024-12-19 08:29:12,234716,-3337
2024-12-19 08:29:12,234673,-3481
2024-12-19 08:29:12,234653,-3492
2024-12-19 08:29:12,234598,-3306
2024-12-19 08:29:12,234814,-3391
2024-12-19 08:29:12,235053,-3433
2024-12-19 08:29:12,235211,-3439
2024-12-19 08:29:12,235125,-3375
2024-12-19 08:29:12,234556,-3393
2024-12-19 08:29:12,234494,-3444
2024-12-19 08:29:12,234419,-3403
2024-12-19 08:29:12,234628,-3558
2024-12-19 08:29:12,234789,-3552
2024-12-19 08:29:12,234807,-3565
2024-12-19 08:29:12,235119,-3538
2024-12-19 08:29:12,235073,-3511
2024-12-19 08:29:12,234762,-3437
2024-12-19 08:29:12,234210,-3449
2024-12-19 08:29:12,234138,-3505
2024-12-19 08:29:12,234076,-3565
2024-12-19 08:29:12,234080,-3652
2024-12-19 08:29:12,234258,-3741
2024-12-19 08:29:12,234443,-3666
2024-12-19 08:29:12,234812,-3504
2024-12-19 08:29:12,234748,-3349
2024-12-19 08:29:12,234303,-3317
2024-12-19 08:29:12,234337,-3247
2024-12-19 08:29:12,234451,-3297
2024-12-19 08:29:12,234552,-3350
2024-12-19 08:29:12,234694,-3323
2024-12-19 08:29:12,234356,-3495
2024-12-19 08:29:12,234774,-3519
2024-12-19 08:29:12,234970,-3496
2024-12-19 08:29:12,234348,-3586
2024-12-19 08:29:12,234062,-3636
2024-12-19 08:29:12,234202,-3630
2024-12-19 08:29:12,234684,-3616
2024-12-19 08:29:12,234948,-3646
2024-12-19 08:29:12,235164,-3520
2024-12-19 08:29:12,235313,-3564
2024-12-19 08:29:12,235559,-3597
2024-12-19 08:29:12,235345,-3637
2024-12-19 08:29:12,234796,-3567
2024-12-19 08:29:12,234822,-3446
2024-12-19 08:29:12,234713,-3448
2024-12-19 08:29:12,234728,-3658
2024-12-19 08:29:12,234711,-3707
2024-12-19 08:29:12,234973,-3711
2024-12-19 08:29:12,235292,-3540
2024-12-19 08:29:12,230919,-6766
2024-12-19 08:29:12,231930,-6257
2024-12-19 08:29:12,233178,-5555
2024-12-19 08:29:12,234241,-5192
2024-12-19 08:29:12,234573,-4910
2024-12-19 08:29:12,234131,-4644
2024-12-19 08:29:12,234227,-4507
2024-12-19 08:29:12,234410,-4204
2024-12-19 08:29:12,234868,-3971
2024-12-19 08:29:12,235359,-3836
2024-12-19 08:29:12,235645,-3666
2024-12-19 08:29:12,236111,-3656
2024-12-19 08:29:12,236112,-3722
2024-12-19 08:29:12,235560,-3811
2024-12-19 08:29:12,235370,-3699
2024-12-19 08:29:12,235514,-3567
2024-12-19 08:29:12,235554,-3657
2024-12-19 08:29:12,235649,-3638
2024-12-19 08:29:12,235956,-3590
2024-12-19 08:29:12,236170,-3587
2024-12-19 08:29:12,236394,-3546
2024-12-19 08:29:12,236378,-3620
2024-12-19 08:29:12,235913,-3594
2024-12-19 08:29:12,235962,-3639
2024-12-19 08:29:12,236190,-3698
2024-12-19 08:29:12,236343,-3689
2024-12-19 08:29:12,236319,-3817
2024-12-19 08:29:12,236480,-3496
2024-12-19 08:29:12,237221,-3217
2024-12-19 08:29:12,237251,-3222
2024-12-19 08:29:12,237003,-3378
2024-12-19 08:29:12,236769,-3407
2024-12-19 08:29:12,236873,-3388
2024-12-19 08:29:12,237092,-3335
2024-12-19 08:29:12,237243,-3311
2024-12-19 08:29:12,237403,-3454
2024-12-19 08:29:12,237414,-3599
2024-12-19 08:29:12,237634,-3556
2024-12-19 08:29:12,237638,-3507
2024-12-19 08:29:12,237231,-3399
2024-12-19 08:29:12,237366,-3371
2024-12-19 08:29:12,237361,-3425
2024-12-19 08:29:12,237671,-3324
2024-12-19 08:29:12,237836,-3319
2024-12-19 08:29:12,238006,-3249
2024-12-19 08:29:12,238400,-3237
2024-12-19 08:29:12,238526,-3243
2024-12-19 08:29:12,238111,-3257
2024-12-19 08:29:12,237683,-3216
2024-12-19 08:29:12,237979,-3179
2024-12-19 08:29:12,238096,-3208
2024-12-19 08:29:12,238246,-3159
2024-12-19 08:29:12,238323,-3152
2024-12-19 08:29:12,238825,-3029
2024-12-19 08:29:12,239099,-2982
2024-12-19 08:29:12,239029,-2995
2024-12-19 08:29:12,238652,-2977
2024-12-19 08:29:12,238623,-3013
2024-12-19 08:29:12,238675,-2992
2024-12-19 08:29:12,238793,-2931
2024-12-19 08:29:12,239198,-2909
2024-12-19 08:29:12,239473,-2879
2024-12-19 08:29:12,239544,-2983
2024-12-19 08:29:12,239831,-2915
2024-12-19 08:29:12,239970,-2802
2024-12-19 08:29:12,239525,-2966
2024-12-19 08:29:12,239554,-3037
2024-12-19 08:29:12,239769,-2994
2024-12-19 08:29:12,240236,-2951
2024-12-19 08:29:13,240383,-2854
2024-12-19 08:29:13,240598,-2832
2024-12-19 08:29:14,240963,-2944
2024-12-19 08:29:14,241119,-2992
2024-12-19 08:29:15,240749,-2902
2024-12-19 08:29:15,240888,-2666
2024-12-19 08:29:15,240866,-2582
2024-12-19 08:29:16,240932,-2765
2024-12-19 08:29:16,241136,-2941
2024-12-19 08:29:17,241536,-2954
2024-12-19 08:29:17,241843,-2936
2024-12-19 08:29:17,242049,-3036
2024-12-19 08:29:18,241979,-2727
2024-12-19 08:29:18,241427,-2697
2024-12-19 08:29:18,241583,-2503
2024-12-19 08:29:18,241673,-2634
2024-12-19 08:29:18,241776,-2672
2024-12-19 08:29:18,241810,-2691
2024-12-19 08:29:18,241753,-2785
2024-12-19 08:29:18,242102,-2902
2024-12-19 08:29:18,242018,-2836
2024-12-19 08:29:19,241562,-2851
2024-12-19 08:29:19,241379,-2919
2024-12-19 08:29:20,241267,-2886
2024-12-19 08:29:20,241311,-2891
2024-12-19 08:29:20,241433,-2903
2024-12-19 08:29:20,241224,-2992
2024-12-19 08:29:20,241342,-2996
2024-12-19 08:29:20,241244,-3092
2024-12-19 08:29:20,240811,-3090
2024-12-19 08:29:20,240258,-3111
2024-12-19 08:29:20,240061,-3181
2024-12-19 08:29:20,239872,-3211
2024-12-19 08:29:20,239957,-3075
2024-12-19 08:29:20,239823,-3096
2024-12-19 08:29:20,239699,-3082
2024-12-19 08:29:20,239481,-3278
2024-12-19 08:29:20,239097,-3524
2024-12-19 08:29:20,238518,-3499
2024-12-19 08:29:20,238039,-3569
2024-12-19 08:29:20,237895,-3519
2024-12-19 08:29:20,237719,-3536
2024-12-19 08:29:20,237579,-3515
2024-12-19 08:29:20,237483,-3526
2024-12-19 08:29:20,237583,-3617
2024-12-19 08:29:20,237369,-3732
2024-12-19 08:29:20,236951,-3831
2024-12-19 08:29:20,236436,-3872
2024-12-19 08:29:20,236287,-3798
2024-12-19 08:29:20,236338,-3614
2024-12-19 08:29:21,236413,-3468
2024-12-19 08:29:21,236467,-3525
2024-12-19 08:29:21,236130,-3699
2024-12-19 08:29:21,236175,-3841
2024-12-19 08:29:21,236267,-3909
2024-12-19 08:29:21,236093,-3817
2024-12-19 08:29:21,235482,-3834
2024-12-19 08:29:21,235482,-3854
2024-12-19 08:29:21,235580,-3867
2024-12-19 08:29:21,235654,-3841
2024-12-19 08:29:21,235604,-3815
2024-12-19 08:29:21,235751,-3872
2024-12-19 08:29:21,236016,-3866
2024-12-19 08:29:21,235901,-3861
2024-12-19 08:29:21,235319,-3814
2024-12-19 08:29:21,235323,-3947
2024-12-19 08:29:21,235426,-3869
2024-12-19 08:29:21,235508,-3839
2024-12-19 08:29:21,235599,-3871
2024-12-19 08:29:21,235668,-3912
2024-12-19 08:29:21,235918,-3974
2024-12-19 08:29:21,235904,-4012
2024-12-19 08:29:21,235749,-3983
2024-12-19 08:29:22,235262,-3822
2024-12-19 08:29:22,235157,-3959
2024-12-19 08:29:23,235363,-3971
2024-12-19 08:29:23,235727,-3942
2024-12-19 08:29:23,235707,-4024
2024-12-19 08:29:23,235581,-4017
2024-12-19 08:29:24,235871,-3994
2024-12-19 08:29:24,235871,-3904
2024-12-19 08:29:25,235314,-3882
2024-12-19 08:29:25,235370,-3900
2024-12-19 08:29:25,235503,-3904
2024-12-19 08:29:26,235586,-3955
2024-12-19 08:29:26,235439,-3986
2024-12-19 08:29:27,235541,-4005
2024-12-19 08:29:27,235780,-4044
2024-12-19 08:29:27,235796,-3992
2024-12-19 08:29:28,235469,-3994
2024-12-19 08:29:28,235288,-4053
2024-12-19 08:29:29,235503,-3914
2024-12-19 08:29:29,235520,-3902
2024-12-19 08:29:29,235648,-3941
2024-12-19 08:29:30,235788,-4024
2024-12-19 08:29:30,235801,-4094
2024-12-19 08:29:31,236084,-4059
2024-12-19 08:29:31,236034,-4114
2024-12-19 08:29:31,235358,-4139
2024-12-19 08:29:32,235654,-4049
2024-12-19 08:29:32,235581,-4029
2024-12-19 08:29:33,235691,-4038
2024-12-19 08:29:33,235828,-4173
2024-12-19 08:29:33,235895,-4279
2024-12-19 08:29:34,236244,-4248
2024-12-19 08:29:34,235996,-4129
2024-12-19 08:29:35,235928,-3952
2024-12-19 08:29:35,235711,-3968
2024-12-19 08:29:35,235754,-3902
2024-12-19 08:29:36,235713,-3794
2024-12-19 08:29:36,235864,-3784
2024-12-19 08:29:36,236012,-3918
2024-12-19 08:29:37,235947,-3964
2024-12-19 08:29:37,236253,-4003
2024-12-19 08:29:38,236124,-4150
2024-12-19 08:29:38,235643,-4166
2024-12-19 08:29:38,235509,-4243
2024-12-19 08:29:39,235609,-4196
2024-12-19 08:29:40,235826,-4152
2024-12-19 08:29:40,235942,-4094
2024-12-19 08:29:40,235833,-4086
2024-12-19 08:29:40,236188,-4079
2024-12-19 08:29:40,235957,-4242
2024-12-19 08:29:40,235839,-4238
2024-12-19 08:29:40,235498,-4190
2024-12-19 08:29:40,235388,-4071
2024-12-19 08:29:40,235420,-4164
2024-12-19 08:29:40,235771,-4131
2024-12-19 08:29:40,235787,-4172
2024-12-19 08:29:40,235686,-4217
2024-12-19 08:29:40,236183,-4143
2024-12-19 08:29:40,236136,-4141
2024-12-19 08:29:40,235771,-4146
2024-12-19 08:29:40,235403,-4261
2024-12-19 08:29:40,235410,-4175
2024-12-19 08:29:40,235513,-4144
2024-12-19 08:29:40,235575,-4186
2024-12-19 08:29:40,235566,-4206
2024-12-19 08:29:40,235721,-4294
2024-12-19 08:29:40,235909,-4220
2024-12-19 08:29:40,235733,-4238
2024-12-19 08:29:40,235357,-4320
2024-12-19 08:29:40,235418,-4385
2024-12-19 08:29:40,235405,-4388
2024-12-19 08:29:40,235416,-4081
2024-12-19 08:29:40,235624,-4165
2024-12-19 08:29:40,235671,-4233
2024-12-19 08:29:40,235862,-4197
2024-12-19 08:29:40,235896,-4226
2024-12-19 08:29:40,235738,-4190
2024-12-19 08:29:40,235454,-4135
2024-12-19 08:29:40,235413,-4216
2024-12-19 08:29:40,235324,-4170
2024-12-19 08:29:40,235451,-4302
2024-12-19 08:29:40,235795,-4278
2024-12-19 08:29:40,235924,-4330
2024-12-19 08:29:40,235951,-4313
2024-12-19 08:29:40,235875,-4147
2024-12-19 08:29:40,235352,-4164
2024-12-19 08:29:40,235358,-4259
2024-12-19 08:29:40,235451,-4369
2024-12-19 08:29:40,235641,-4367
2024-12-19 08:29:40,235743,-4264
2024-12-19 08:29:40,235724,-4271
2024-12-19 08:29:40,236066,-4197
2024-12-19 08:29:40,236013,-4164
2024-12-19 08:29:41,235484,-4269
2024-12-19 08:29:41,235364,-4403
2024-12-19 08:29:41,235276,-4392
2024-12-19 08:29:41,235313,-4355
2024-12-19 08:29:41,235653,-4329
2024-12-19 08:29:41,235727,-4374
2024-12-19 08:29:41,235818,-4321
2024-12-19 08:29:41,235974,-4319
2024-12-19 08:29:41,235839,-4340
2024-12-19 08:29:41,235318,-4307
2024-12-19 08:29:41,235595,-4197
2024-12-19 08:29:41,235666,-4117
2024-12-19 08:29:41,235819,-4151
2024-12-19 08:29:41,235956,-4185
2024-12-19 08:29:41,235862,-4302
2024-12-19 08:29:41,236053,-4346
2024-12-19 08:29:41,235942,-4339
2024-12-19 08:29:41,235556,-4234
2024-12-19 08:29:41,235481,-4307
2024-12-19 08:29:41,235629,-4305
2024-12-19 08:29:41,235591,-4281
2024-12-19 08:29:41,235933,-4255
2024-12-19 08:29:41,235857,-4240
2024-12-19 08:29:41,235887,-4355
2024-12-19 08:29:41,235905,-4536
2024-12-19 08:29:41,235882,-4452
2024-12-19 08:29:41,235425,-4407
2024-12-19 08:29:41,235437,-4401
2024-12-19 08:29:41,235539,-4527
2024-12-19 08:29:41,235683,-4626
2024-12-19 08:29:41,235769,-4565
2024-12-19 08:29:41,235613,-4216
2024-12-19 08:29:41,236045,-4078
2024-12-19 08:29:41,236043,-4226
2024-12-19 08:29:41,235743,-4266
2024-12-19 08:29:41,235503,-4214
2024-12-19 08:29:41,235529,-4194
2024-12-19 08:29:41,235553,-4342
2024-12-19 08:29:41,235733,-4313
2024-12-19 08:29:41,235579,-4255
2024-12-19 08:29:41,235790,-4181
2024-12-19 08:29:41,235836,-4319
2024-12-19 08:29:41,235664,-4336
2024-12-19 08:29:41,235092,-4431
2024-12-19 08:29:41,235047,-4307
2024-12-19 08:29:41,235244,-4266
2024-12-19 08:29:41,235389,-4224
2024-12-19 08:29:41,235495,-4277
2024-12-19 08:29:41,235679,-4197
2024-12-19 08:29:41,235940,-4107
2024-12-19 08:29:41,236163,-4013
2024-12-19 08:29:41,235766,-4107
2024-12-19 08:29:41,235239,-4229
2024-12-19 08:29:41,235273,-4133
2024-12-19 08:29:41,235396,-4199
2024-12-19 08:29:41,235706,-4246
2024-12-19 08:29:41,235697,-4237
2024-12-19 08:29:41,235649,-4472
2024-12-19 08:29:41,236239,-4390
2024-12-19 08:29:41,236368,-4432
2024-12-19 08:29:41,235985,-4347
2024-12-19 08:29:41,236046,-4367
2024-12-19 08:29:41,236066,-4331
2024-12-19 08:29:41,236144,-4338
2024-12-19 08:29:41,236143,-4327
2024-12-19 08:29:41,236198,-4287
2024-12-19 08:29:41,236424,-4275
2024-12-19 08:29:41,236489,-4335
2024-12-19 08:29:41,236515,-4276
2024-12-19 08:29:41,236084,-4224
2024-12-19 08:29:41,236263,-4305
2024-12-19 08:29:41,235898,-4402
2024-12-19 08:29:41,235819,-4622
2024-12-19 08:29:41,236019,-4567
2024-12-19 08:29:41,236239,-4646
2024-12-19 08:29:41,236434,-4599
2024-12-19 08:29:41,236328,-4408
2024-12-19 08:29:41,235701,-4403
2024-12-19 08:29:41,235824,-4508
2024-12-19 08:29:41,235853,-4513
2024-12-19 08:29:41,235843,-4532
2024-12-19 08:29:41,236198,-4343
2024-12-19 08:29:41,236241,-4387
2024-12-19 08:29:41,236364,-4432
2024-12-19 08:29:41,236359,-4456
2024-12-19 08:29:41,236183,-4538
2024-12-19 08:29:41,235768,-4527
2024-12-19 08:29:41,235786,-4528
2024-12-19 08:29:41,235943,-4607
2024-12-19 08:29:41,236028,-4564
2024-12-19 08:29:41,236126,-4575
2024-12-19 08:29:41,236240,-4585
2024-12-19 08:29:41,236643,-4576
2024-12-19 08:29:41,236474,-4544
2024-12-19 08:29:41,236126,-4443
2024-12-19 08:29:41,236103,-4452
2024-12-19 08:29:41,236014,-4421
2024-12-19 08:29:41,235876,-4562
2024-12-19 08:29:41,235955,-4605
2024-12-19 08:29:41,236210,-4572
2024-12-19 08:29:41,236507,-4531
2024-12-19 08:29:41,236625,-4476
2024-12-19 08:29:41,236449,-4466
2024-12-19 08:29:41,235885,-4563
2024-12-19 08:29:41,235889,-4531
2024-12-19 08:29:41,235828,-4581
2024-12-19 08:29:41,235911,-4467
2024-12-19 08:29:41,236171,-4415
2024-12-19 08:29:41,236299,-4466
2024-12-19 08:29:41,237141,-4276
2024-12-19 08:29:41,238204,-4054
2024-12-19 08:29:41,238888,-3767
2024-12-19 08:29:41,239538,-3549
2024-12-19 08:29:41,241107,-3154
2024-12-19 08:29:41,242931,-2941
2024-12-19 08:29:41,244221,-2590
2024-12-19 08:29:41,244663,-2270
2024-12-19 08:29:41,245652,-2043
2024-12-19 08:29:41,244984,-2052
2024-12-19 08:29:41,242015,-2897
2024-12-19 08:29:41,236983,-4307
2024-12-19 08:29:41,232549,-5449
2024-12-19 08:29:41,231081,-5923
2024-12-19 08:29:41,228803,-6752
2024-12-19 08:29:41,226306,-7923
2024-12-19 08:29:41,221011,-8802
2024-12-19 08:29:41,218710,-9136
2024-12-19 08:29:41,219186,-9110
2024-12-19 08:29:41,217527,-9622
2024-12-19 08:29:41,216674,-9964
2024-12-19 08:29:41,216729,-10211
2024-12-19 08:29:41,219212,-9996
2024-12-19 08:29:41,222486,-9876
2024-12-19 08:29:41,225054,-9726
2024-12-19 08:29:41,228029,-9284
2024-12-19 08:29:41,230358,-8578
2024-12-19 08:29:41,231544,-7811
2024-12-19 08:29:41,232117,-7151
2024-12-19 08:29:41,233424,-6482
2024-12-19 08:29:41,234463,-5956
2024-12-19 08:29:41,235264,-5638
2024-12-19 08:29:41,235824,-5430
2024-12-19 08:29:41,235898,-5269
2024-12-19 08:29:41,236187,-5031
2024-12-19 08:29:41,236467,-4909
2024-12-19 08:29:41,236447,-4869
2024-12-19 08:29:41,236095,-4691
2024-12-19 08:29:41,236301,-4498
2024-12-19 08:29:41,236508,-4546
2024-12-19 08:29:41,236592,-4440
2024-12-19 08:29:41,236729,-4404
2024-12-19 08:29:41,237099,-4334
2024-12-19 08:29:41,237251,-4283
2024-12-19 08:29:41,237185,-4312
2024-12-19 08:29:41,236709,-4325
2024-12-19 08:29:41,236768,-4249
2024-12-19 08:29:41,236963,-4305
2024-12-19 08:29:41,237294,-4267
2024-12-19 08:29:41,237497,-4376
2024-12-19 08:29:41,237363,-4221
2024-12-19 08:29:41,237844,-4219
2024-12-19 08:29:41,237946,-4179
2024-12-19 08:29:41,237871,-4107
2024-12-19 08:29:41,237541,-4062
2024-12-19 08:29:41,237693,-4076
2024-12-19 08:29:41,237873,-4072
2024-12-19 08:29:41,238158,-4069
2024-12-19 08:29:41,238341,-4072
2024-12-19 08:29:41,238662,-4119
2024-12-19 08:29:41,238831,-4081
2024-12-19 08:29:41,238921,-4129
2024-12-19 08:29:41,238468,-4095
2024-12-19 08:29:41,238631,-4081
2024-12-19 08:29:41,238676,-4052
2024-12-19 08:29:41,239014,-4022
2024-12-19 08:29:41,239231,-3977
2024-12-19 08:29:41,239325,-4084
2024-12-19 08:29:41,239818,-4086
2024-12-19 08:29:41,239658,-4280
2024-12-19 08:29:41,239454,-3785
2024-12-19 08:29:41,239221,-3917
2024-12-19 08:29:41,239414,-3922
2024-12-19 08:29:41,239486,-3870
2024-12-19 08:29:41,239611,-3817
2024-12-19 08:29:41,239919,-3768
2024-12-19 08:29:41,240292,-3790
2024-12-19 08:29:41,239964,-3872
2024-12-19 08:29:41,239479,-3689
2024-12-19 08:29:41,239589,-3784
2024-12-19 08:29:41,239595,-3782
2024-12-19 08:29:41,239747,-3799
2024-12-19 08:29:41,240043,-3746
2024-12-19 08:29:41,240293,-3646
2024-12-19 08:29:41,240578,-3682
2024-12-19 08:29:41,240688,-3600
2024-12-19 08:29:41,240530,-3680
2024-12-19 08:29:41,240359,-3655
2024-12-19 08:29:41,240458,-3580
2024-12-19 08:29:41,240696,-3562
2024-12-19 08:29:41,240972,-3552
2024-12-19 08:29:41,241078,-3483
2024-12-19 08:29:41,241271,-3530
2024-12-19 08:29:41,241771,-3424
2024-12-19 08:29:41,241948,-3409
2024-12-19 08:29:41,241708,-3563
2024-12-19 08:29:41,241586,-3548
2024-12-19 08:29:41,241633,-3497
2024-12-19 08:29:41,242005,-3480
2024-12-19 08:29:41,242311,-3483
2024-12-19 08:29:41,242479,-3437
2024-12-19 08:29:41,242852,-3378
2024-12-19 08:29:41,243115,-3482
2024-12-19 08:29:41,243022,-3477
2024-12-19 08:29:41,242668,-3472
2024-12-19 08:29:41,242797,-3412
2024-12-19 08:29:41,242899,-3289
2024-12-19 08:29:41,243111,-3377
2024-12-19 08:29:41,243301,-3422
2024-12-19 08:29:41,243477,-3353
2024-12-19 08:29:41,243868,-3354
2024-12-19 08:29:41,243883,-3337
2024-12-19 08:29:41,243726,-3411
2024-12-19 08:29:41,243319,-3424
2024-12-19 08:29:41,243427,-3399
2024-12-19 08:29:41,243427,-3415
2024-12-19 08:29:41,243633,-3473
2024-12-19 08:29:41,243515,-3397
2024-12-19 08:29:41,243663,-3432
2024-12-19 08:29:41,243915,-3387
2024-12-19 08:29:41,243616,-3389
2024-12-19 08:29:41,243030,-3492
2024-12-19 08:29:41,243043,-3361
2024-12-19 08:29:41,242966,-3402
2024-12-19 08:29:41,242892,-3430
2024-12-19 08:29:41,242783,-3467
2024-12-19 08:29:41,242612,-3717
2024-12-19 08:29:41,242722,-3633
2024-12-19 08:29:41,242323,-3788
2024-12-19 08:29:41,241612,-3729
2024-12-19 08:29:41,241375,-3734
2024-12-19 08:29:41,241150,-3840
2024-12-19 08:29:41,241141,-3959
2024-12-19 08:29:41,240826,-3991
2024-12-19 08:29:41,240724,-3915
2024-12-19 08:29:41,240546,-4064
2024-12-19 08:29:41,240481,-4256
2024-12-19 08:29:41,240175,-4212
2024-12-19 08:29:41,239371,-4075
2024-12-19 08:29:41,239263,-3930
2024-12-19 08:29:41,239054,-4032
2024-12-19 08:29:41,238928,-4113
2024-12-19 08:29:41,238809,-4259
2024-12-19 08:29:41,238666,-4320
2024-12-19 08:29:41,238818,-4239
2024-12-19 08:29:41,238746,-4251
2024-12-19 08:29:41,238128,-4247
2024-12-19 08:29:41,237920,-4279
2024-12-19 08:29:41,237856,-4219
2024-12-19 08:29:41,237869,-4262
2024-12-19 08:29:41,238003,-4288
2024-12-19 08:29:41,238058,-4296
2024-12-19 08:29:41,237933,-4236
2024-12-19 08:29:41,238242,-4338
2024-12-19 08:29:41,238088,-4424
2024-12-19 08:29:41,237496,-4321
2024-12-19 08:29:41,237463,-4271
2024-12-19 08:29:41,237441,-4147
2024-12-19 08:29:41,237555,-4285
2024-12-19 08:29:41,237602,-4387
2024-12-19 08:29:41,237554,-4392
2024-12-19 08:29:41,237828,-4515
2024-12-19 08:29:41,237743,-4641
2024-12-19 08:29:41,237429,-4619
2024-12-19 08:29:41,237117,-4528
2024-12-19 08:29:41,237331,-4419
2024-12-19 08:29:41,237401,-4432
2024-12-19 08:29:41,237562,-4496
2024-12-19 08:29:41,237641,-4557
2024-12-19 08:29:41,237911,-4556
2024-12-19 08:29:41,237925,-4536
2024-12-19 08:29:41,237778,-4526
2024-12-19 08:29:41,237472,-4411
2024-12-19 08:29:41,237232,-4591
2024-12-19 08:29:41,237280,-4529
2024-12-19 08:29:41,237660,-4392
2024-12-19 08:29:41,237773,-4403
2024-12-19 08:29:41,237694,-4529
2024-12-19 08:29:41,237991,-4572
2024-12-19 08:29:41,238236,-4531
2024-12-19 08:29:41,238028,-4482
2024-12-19 08:29:41,237661,-4487
2024-12-19 08:29:41,237628,-4404
2024-12-19 08:29:41,237659,-4469
2024-12-19 08:29:41,237948,-4476
2024-12-19 08:29:41,237906,-4489
2024-12-19 08:29:41,238071,-4532
2024-12-19 08:29:41,238252,-4466
2024-12-19 08:29:41,238272,-4498
2024-12-19 08:29:41,237639,-4537
2024-12-19 08:29:41,237726,-4472
2024-12-19 08:29:41,237779,-4439
2024-12-19 08:29:41,237759,-4454
2024-12-19 08:29:41,238011,-4492
2024-12-19 08:29:41,237962,-4490
2024-12-19 08:29:41,238178,-4521
2024-12-19 08:29:41,238306,-4542
2024-12-19 08:29:41,238178,-4557
2024-12-19 08:29:41,237761,-4447
2024-12-19 08:29:41,237799,-4516
2024-12-19 08:29:41,237884,-4508
2024-12-19 08:29:41,237996,-4429
2024-12-19 08:29:41,238194,-4447
2024-12-19 08:29:41,238318,-4429
2024-12-19 08:29:41,238514,-4446
2024-12-19 08:29:41,238288,-4467
2024-12-19 08:29:41,237882,-4383
2024-12-19 08:29:41,237974,-4446
2024-12-19 08:29:41,238043,-4590
2024-12-19 08:29:41,238222,-4674
2024-12-19 08:29:41,238323,-4662
2024-12-19 08:29:41,238398,-4620
2024-12-19 08:29:41,238433,-4266
2024-12-19 08:29:41,238506,-4374
2024-12-19 08:29:41,238318,-4509
2024-12-19 08:29:41,237933,-4556
2024-12-19 08:29:41,237821,-4528
2024-12-19 08:29:41,238058,-4452
2024-12-19 08:29:41,237894,-4619
2024-12-19 08:29:41,238011,-4717
2024-12-19 08:29:41,238129,-4667
2024-12-19 08:29:41,238336,-4581
2024-12-19 08:29:41,238286,-4578
2024-12-19 08:29:41,237895,-4579
2024-12-19 08:29:41,237898,-4509
2024-12-19 08:29:41,237932,-4579
2024-12-19 08:29:41,237868,-4619
2024-12-19 08:29:41,237953,-4640
2024-12-19 08:29:41,237898,-4731
2024-12-19 08:29:41,238244,-4649
2024-12-19 08:29:41,238279,-4591
2024-12-19 08:29:41,238299,-4640
2024-12-19 08:29:41,237718,-4704
2024-12-19 08:29:41,237712,-4724
2024-12-19 08:29:41,237702,-4654
2024-12-19 08:29:41,238086,-4447
2024-12-19 08:29:41,238066,-4539
2024-12-19 08:29:41,237968,-4549
2024-12-19 08:29:41,238126,-4680
2024-12-19 08:29:41,238084,-4679
2024-12-19 08:29:41,237843,-4690
2024-12-19 08:29:41,237565,-4733
2024-12-19 08:29:41,237585,-4786
2024-12-19 08:29:41,238047,-4681
2024-12-19 08:29:41,237908,-4679
2024-12-19 08:29:41,237730,-4681
2024-12-19 08:29:41,238197,-4673
2024-12-19 08:29:41,238326,-4591
2024-12-19 08:29:41,237875,-4688
2024-12-19 08:29:41,237530,-4668
2024-12-19 08:29:41,237605,-4664
2024-12-19 08:29:41,237586,-4641
2024-12-19 08:29:41,237781,-4616
2024-12-19 08:29:41,237908,-4636
2024-12-19 08:29:41,237908,-4629
2024-12-19 08:29:41,238155,-4831
2024-12-19 08:29:41,238212,-4710
2024-12-19 08:29:41,237915,-4664
2024-12-19 08:29:41,237671,-4694
2024-12-19 08:29:41,237768,-4639
2024-12-19 08:29:41,237789,-4671
2024-12-19 08:29:41,237771,-4794
2024-12-19 08:29:41,237940,-4801
2024-12-19 08:29:41,238158,-4809
2024-12-19 08:29:41,238249,-4702
2024-12-19 08:29:41,238227,-4711
2024-12-19 08:29:41,237556,-4770
2024-12-19 08:29:41,237545,-4784
2024-12-19 08:29:41,237779,-4625
2024-12-19 08:29:41,237824,-4682
2024-12-19 08:29:41,237939,-4597
2024-12-19 08:29:41,237858,-4624
2024-12-19 08:29:41,238097,-4672
2024-12-19 08:29:41,238244,-4701
2024-12-19 08:29:41,237985,-4796
2024-12-19 08:29:41,237843,-4799
2024-12-19 08:29:41,237876,-4796
2024-12-19 08:29:41,237930,-4590
2024-12-19 08:29:41,238019,-4706
2024-12-19 08:29:41,238252,-4814
2024-12-19 08:29:41,238208,-4831
2024-12-19 08:29:41,238250,-4797
2024-12-19 08:29:41,238026,-4742
2024-12-19 08:29:41,237514,-4728
2024-12-19 08:29:41,237561,-4721
2024-12-19 08:29:41,237775,-4692
2024-12-19 08:29:41,237846,-4734
2024-12-19 08:29:41,237925,-4731
2024-12-19 08:29:41,237884,-4805
2024-12-19 08:29:41,238149,-4773
2024-12-19 08:29:41,238356,-4782
2024-12-19 08:29:41,238132,-4847
2024-12-19 08:29:41,237724,-4798
2024-12-19 08:29:41,237655,-4834
2024-12-19 08:29:41,237699,-4861
2024-12-19 08:29:41,237973,-4759
2024-12-19 08:29:41,238105,-4751
2024-12-19 08:29:41,238112,-4795
2024-12-19 08:29:41,238418,-4765
2024-12-19 08:29:41,238261,-4722
2024-12-19 08:29:41,237814,-4554
2024-12-19 08:29:41,237724,-4660
2024-12-19 08:29:41,237829,-4699
2024-12-19 08:29:41,237956,-4746
2024-12-19 08:29:41,237997,-4661
2024-12-19 08:29:41,237960,-4667
2024-12-19 08:29:41,238138,-4761
2024-12-19 08:29:41,237909,-4847
2024-12-19 08:29:41,237535,-4809
2024-12-19 08:29:41,237344,-4798
2024-12-19 08:29:41,237290,-4801
2024-12-19 08:29:41,237266,-4760
2024-12-19 08:29:41,237265,-4727
2024-12-19 08:29:41,237479,-4756
2024-12-19 08:29:41,237659,-4756
2024-12-19 08:29:41,238042,-4695
2024-12-19 08:29:41,238151,-4669
2024-12-19 08:29:41,237676,-4640
2024-12-19 08:29:41,237664,-4561
2024-12-19 08:29:41,237598,-4629
2024-12-19 08:29:41,237702,-4666
2024-12-19 08:29:41,237885,-4649
2024-12-19 08:29:41,237972,-4552
2024-12-19 08:29:41,238254,-4675
2024-12-19 08:29:41,238399,-4621
2024-12-19 08:29:41,238081,-4750
2024-12-19 08:29:41,238001,-4691
2024-12-19 08:29:41,238168,-4449
2024-12-19 08:29:41,238210,-4638
2024-12-19 08:29:41,238392,-4618
2024-12-19 08:29:41,238686,-4639
2024-12-19 08:29:41,238624,-4676
2024-12-19 08:29:41,238928,-4737
2024-12-19 08:29:41,238798,-4796
2024-12-19 08:29:41,238554,-4805
2024-12-19 08:29:41,238331,-4742
2024-12-19 08:29:41,238372,-4680
2024-12-19 08:29:41,238416,-4709
2024-12-19 08:29:41,238383,-4804
2024-12-19 08:29:41,238348,-4836
2024-12-19 08:29:41,238733,-4935
2024-12-19 08:29:41,238794,-4871
2024-12-19 08:29:41,238528,-4869
2024-12-19 08:29:41,237996,-4899
2024-12-19 08:29:41,237857,-4836
2024-12-19 08:29:41,237799,-4897
2024-12-19 08:29:41,237908,-4821
2024-12-19 08:29:41,237996,-4874
2024-12-19 08:29:41,238164,-4826
2024-12-19 08:29:41,238460,-4844
2024-12-19 08:29:41,238505,-4839
2024-12-19 08:29:41,238241,-4870
2024-12-19 08:29:41,237956,-4864
2024-12-19 08:29:41,237989,-4767
2024-12-19 08:29:41,238131,-4737
2024-12-19 08:29:41,238361,-4760
2024-12-19 08:29:41,238439,-4875
2024-12-19 08:29:41,238538,-4948
2024-12-19 08:29:41,238699,-4881
2024-12-19 08:29:41,238599,-4976
2024-12-19 08:29:41,238091,-4906
2024-12-19 08:29:41,237987,-4943
2024-12-19 08:29:41,238092,-4932
2024-12-19 08:29:41,238199,-4936
2024-12-19 08:29:41,238371,-4834
2024-12-19 08:29:41,238363,-4867
2024-12-19 08:29:41,238845,-4776
2024-12-19 08:29:41,238692,-4799
2024-12-19 08:29:41,238030,-4866
2024-12-19 08:29:41,237984,-4884
2024-12-19 08:29:41,238046,-4812
2024-12-19 08:29:41,238222,-4920
2024-12-19 08:29:41,238317,-4896
2024-12-19 08:29:41,238341,-4778
2024-12-19 08:29:41,238664,-4816
2024-12-19 08:29:41,238919,-4833
2024-12-19 08:29:41,238800,-4896
2024-12-19 08:29:41,238691,-4805
2024-12-19 08:29:41,239442,-4609
2024-12-19 08:29:41,240559,-4229
2024-12-19 08:29:41,241494,-4118
2024-12-19 08:29:41,242838,-3829
2024-12-19 08:29:41,244863,-3425
2024-12-19 08:29:41,246319,-2831
2024-12-19 08:29:41,246487,-2546
2024-12-19 08:29:41,246722,-2359
2024-12-19 08:29:41,246141,-2223
2024-12-19 08:29:41,244231,-2849
2024-12-19 08:29:41,242594,-3366
2024-12-19 08:29:41,238551,-4969
2024-12-19 08:29:41,235268,-6087
2024-12-19 08:29:41,233074,-6816
2024-12-19 08:29:41,231388,-7979
2024-12-19 08:29:41,226215,-8867
2024-12-19 08:29:41,222511,-9404
2024-12-19 08:29:41,222725,-9505
2024-12-19 08:29:41,222381,-9956
2024-12-19 08:29:41,221159,-10576
2024-12-19 08:29:41,221003,-10898
2024-12-19 08:29:41,222286,-10662
2024-12-19 08:29:41,225940,-10387
2024-12-19 08:29:41,228368,-10119
2024-12-19 08:29:41,230474,-9524
2024-12-19 08:29:41,232608,-8937
2024-12-19 08:29:41,234244,-8265
2024-12-19 08:29:41,235377,-7569
2024-12-19 08:29:41,236301,-6964
2024-12-19 08:29:41,237258,-6403
2024-12-19 08:29:41,237726,-6112
2024-12-19 08:29:41,238744,-5767
2024-12-19 08:29:41,238635,-5622
2024-12-19 08:29:41,238044,-5409
2024-12-19 08:29:41,238123,-5176
2024-12-19 08:29:41,238280,-5029
2024-12-19 08:29:41,238524,-4900
2024-12-19 08:29:41,238764,-4859
2024-12-19 08:29:41,239021,-4732
2024-12-19 08:29:41,239316,-4654
2024-12-19 08:29:41,239368,-4697
2024-12-19 08:29:41,239086,-4589
2024-12-19 08:29:41,238958,-4475
2024-12-19 08:29:41,239156,-4531
2024-12-19 08:29:41,239343,-4501
2024-12-19 08:29:41,239592,-4492
2024-12-19 08:29:41,239605,-4516
2024-12-19 08:29:41,239987,-4458
2024-12-19 08:29:41,240144,-4467
2024-12-19 08:29:41,240169,-4334
2024-12-19 08:29:41,239813,-4336
2024-12-19 08:29:41,239631,-4334
2024-12-19 08:29:41,239713,-4316
2024-12-19 08:29:41,240009,-4198
2024-12-19 08:29:41,240083,-4282
2024-12-19 08:29:41,240221,-4337
2024-12-19 08:29:41,240520,-4293
2024-12-19 08:29:41,240878,-4218
2024-12-19 08:29:41,240544,-4232
2024-12-19 08:29:41,240313,-4192
2024-12-19 08:29:41,240286,-4204
2024-12-19 08:29:41,240615,-4186
2024-12-19 08:29:41,240763,-4170
2024-12-19 08:29:41,243661,-3734
2024-12-19 08:29:41,243779,-3794
2024-12-19 08:29:41,243759,-3836
